minimum_temperature,maximum_temperature,crop_evapotranspiration,potential_evapotranspiration,vapour_pressure,wet_day_frequency,average_temperature,rainfall,cloud_cover
21.432,29.542,3.61,5.02,24.224,2.59,25.474,32.203,38.243
22.092,30.785,4.16,5.62,23.985,2.967,26.444,65.658,33.989
22.479,31.089,4.51,5.94,25.568,3.373,26.796,46.805,36.305
23.871,31.71,4.57,5.7,28.552,4.833,27.808,152.341,49.53
24.5,31.539,4.35,5.33,29.518,4.176,27.991,140.814,58.655
24.034,30.366,4.02,4.81,28.501,2.901,27.165,18.764,70.948
23.356,29.717,3.99,4.75,27.745,1.969,26.515,16.527,73.598
23.282,29.643,4.01,4.84,27.72,1.502,26.442,31.784,69.069
23.077,29.691,4.0,4.92,27.754,7.625,26.372,141.092,64.381
22.784,29.543,3.78,4.75,27.637,6.99,26.164,121.374,62.885
21.894,28.646,3.38,4.46,26.656,12.849,25.245,328.233,57.36
21.129,28.166,3.21,4.45,24.168,5.345,24.616,32.109,48.352
20.595,28.706,3.54,4.98,23.344,3.846,24.638,136.362,38.243
20.798,29.491,4.03,5.52,23.546,3.454,25.113,26.801,33.989
22.716,31.328,4.54,5.9,25.879,3.687,27.007,72.174,36.305
24.398,32.236,4.62,5.72,28.555,3.488,28.334,46.947,49.53
24.936,31.937,4.38,5.33,29.518,3.132,28.391,56.634,58.655
24.403,30.733,4.06,4.84,28.598,7.051,27.571,178.164,70.948
23.167,29.529,3.98,4.75,27.745,1.96,26.328,2.704,73.598
23.662,30.024,4.05,4.85,28.247,3.092,26.819,93.935,69.069
23.177,29.792,4.02,4.95,27.754,4.95,26.471,44.56,64.381
22.387,29.112,3.73,4.71,27.637,12.102,25.73,371.821,62.885
21.758,28.507,3.37,4.45,26.621,9.233,25.107,265.56,57.36
21.437,28.513,3.25,4.45,25.097,5.765,24.964,95.101,48.352
21.446,29.556,3.61,4.99,23.517,1.637,25.487,34.659,38.243
22.004,30.696,4.15,5.59,24.006,1.798,26.357,9.927,33.989
22.851,31.46,4.56,5.94,25.082,0.331,27.139,0.33,36.305
24.602,32.44,4.65,5.72,28.591,2.764,28.499,44.537,49.53
24.647,31.647,4.35,5.32,29.518,6.243,28.099,159.094,58.655
24.409,30.74,4.06,4.82,28.501,4.152,27.538,34.718,70.948
23.337,29.7,4.0,4.75,27.839,3.403,26.497,28.261,73.598
23.217,29.577,4.01,4.84,27.72,6.794,26.376,71.828,69.069
23.018,29.632,4.0,4.91,27.754,7.271,26.314,131.229,64.381
22.938,29.659,3.78,4.73,27.637,8.511,26.28,148.436,62.885
22.01,28.757,3.39,4.48,26.319,8.378,25.356,261.149,57.36
20.652,27.687,3.17,4.45,24.32,7.245,24.138,137.496,48.352
20.129,28.238,3.51,4.96,22.657,2.292,24.17,56.182,38.243
20.417,29.111,4.0,5.52,22.742,0.662,24.729,0.693,33.989
21.865,30.48,4.46,5.87,24.497,0.331,26.158,0.33,36.305
24.192,32.035,4.6,5.69,28.552,1.096,28.094,1.863,49.53
24.555,31.584,4.36,5.35,29.511,2.723,28.038,42.213,58.655
23.435,29.768,3.98,4.8,27.683,3.395,26.567,5.899,70.948
23.015,29.375,3.98,4.74,27.745,6.108,26.175,99.208,73.598
22.766,29.126,3.98,4.8,27.72,2.197,25.926,13.214,69.069
23.281,29.897,4.03,4.91,27.754,2.634,26.575,24.289,64.381
22.978,29.701,3.78,4.73,27.637,7.818,26.321,207.961,62.885
22.201,28.948,3.41,4.5,26.624,2.638,25.549,26.766,57.36
20.675,27.711,3.18,4.45,24.28,5.712,24.161,93.176,48.352
20.435,28.545,3.53,4.95,23.517,1.216,24.477,2.106,38.243
21.415,30.108,4.09,5.53,23.912,0.632,25.729,1.484,33.989
23.205,31.816,4.58,5.95,25.636,0.71,27.493,1.189,36.305
23.609,31.447,4.55,5.71,28.516,6.34,27.505,102.348,49.53
24.29,31.33,4.33,5.3,29.509,4.507,27.781,91.897,58.655
24.038,30.369,4.02,4.79,28.598,3.308,27.169,72.93,70.948
24.15,30.512,4.06,4.77,28.675,1.128,27.307,1.888,73.598
23.482,29.844,4.03,4.86,27.72,3.106,26.64,68.345,69.069
23.617,30.232,4.06,4.95,27.754,3.25,26.91,40.975,64.381
22.758,29.479,3.77,4.74,27.637,10.014,26.099,188.92,62.885
22.084,28.834,3.41,4.46,26.656,8.091,25.433,145.725,57.36
21.206,28.243,3.21,4.45,24.248,2.042,24.693,9.355,48.352
21.114,29.227,3.58,4.96,23.517,2.611,25.157,18.07,38.243
22.07,30.762,4.14,5.57,23.893,0.741,26.383,10.138,33.989
22.948,31.56,4.57,5.93,25.603,3.063,27.238,26.61,36.305
24.82,32.66,4.68,5.74,28.555,2.674,28.758,29.125,49.53
24.71,31.713,4.35,5.34,29.544,3.476,28.166,25.978,58.655
23.981,30.313,4.02,4.81,28.626,3.58,27.111,18.424,70.948
23.477,29.84,4.01,4.77,27.745,3.553,26.64,36.453,73.598
22.876,29.236,3.98,4.82,27.72,4.194,26.035,104.438,69.069
23.472,30.087,4.04,4.94,27.754,2.767,26.764,21.55,64.381
22.555,29.319,3.77,4.75,27.637,9.894,25.939,276.212,62.885
21.509,28.261,3.35,4.45,26.656,10.46,24.862,282.579,57.36
21.202,28.239,3.22,4.45,24.371,7.06,24.689,77.828,48.352
20.543,28.653,3.54,4.96,23.517,1.662,24.584,58.729,38.243
21.179,29.875,4.06,5.54,24.032,1.072,25.493,5.476,33.989
22.71,31.323,4.54,5.93,25.879,2.691,27.001,22.54,36.305
23.776,31.654,4.58,5.71,28.41,5.554,27.713,128.375,49.53
24.718,31.719,4.36,5.32,29.518,3.301,28.21,32.241,58.655
24.034,30.366,4.02,4.82,28.501,1.532,27.165,8.378,70.948
23.274,29.637,3.99,4.75,27.745,3.259,26.436,63.312,73.598
22.658,29.018,3.97,4.8,26.757,3.123,25.818,11.123,69.069
23.377,29.994,4.04,4.93,27.754,4.739,26.671,40.173,64.381
22.491,29.215,3.74,4.73,27.637,11.175,25.834,285.435,62.885
21.746,28.523,3.38,4.46,26.656,9.298,25.123,173.827,57.36
21.195,28.232,3.22,4.45,24.342,5.578,24.682,76.438,48.352
20.604,28.713,3.54,4.97,23.517,1.95,24.644,22.899,38.243
20.797,29.49,4.04,5.52,24.004,2.923,25.111,133.193,33.989
22.342,30.952,4.5,5.89,25.277,3.781,26.631,67.864,36.305
24.564,32.405,4.65,5.71,28.552,3.948,28.463,79.476,49.53
24.456,31.523,4.37,5.36,29.518,3.476,27.974,63.912,58.655
23.593,29.923,3.99,4.81,28.542,1.736,26.722,13.911,70.948
22.679,29.04,3.94,4.71,27.083,3.34,25.839,27.779,73.598
23.028,29.388,4.0,4.82,27.202,3.242,26.189,74.315,69.069
22.74,29.353,3.97,4.91,27.754,7.442,26.034,151.258,64.381
22.551,29.276,3.75,4.71,27.637,11.611,25.896,320.514,62.885
21.428,28.177,3.35,4.45,26.17,4.709,24.778,36.614,57.36
20.479,27.551,3.18,4.43,23.978,3.995,24.003,22.587,48.352
20.393,28.504,3.52,4.95,22.778,2.975,24.435,96.47,38.243
20.995,29.729,4.07,5.54,24.01,2.371,25.348,93.504,33.989
22.577,31.188,4.52,5.91,25.879,1.72,26.866,4.021,36.305
24.065,31.944,4.6,5.72,28.552,5.467,28.001,24.378,49.53
24.214,31.255,4.33,5.33,29.518,6.335,27.709,150.81,58.655
23.642,29.972,4.0,4.81,28.626,2.542,26.771,14.457,70.948
22.623,28.984,3.92,4.73,26.266,2.26,25.783,4.702,73.598
22.572,28.932,3.95,4.8,27.026,7.501,25.732,194.847,69.069
22.744,29.357,3.97,4.91,26.577,5.09,26.039,75.277,64.381
22.523,29.248,3.74,4.71,27.659,8.697,25.868,119.698,62.885
21.844,28.592,3.38,4.45,26.652,8.55,25.193,183.634,57.36
21.295,28.332,3.22,4.45,24.534,4.005,24.782,40.637,48.352
20.643,28.753,3.55,4.98,23.517,2.483,24.683,78.58,38.243
20.888,29.581,4.04,5.54,23.975,3.437,25.201,63.977,33.989
22.11,30.723,4.47,5.9,25.078,0.754,26.402,1.779,36.305
23.57,31.412,4.55,5.68,28.555,4.309,27.47,65.651,49.53
24.752,31.752,4.36,5.32,29.518,2.557,28.244,58.981,58.655
23.759,30.089,4.0,4.81,28.598,3.728,26.889,60.617,70.948
22.916,29.276,3.97,4.75,27.745,6.563,26.074,117.266,73.598
22.68,29.041,3.97,4.81,27.72,6.352,25.841,160.465,69.069
22.794,29.407,3.97,4.91,27.754,2.98,26.088,28.346,64.381
22.302,29.063,3.74,4.71,27.637,10.474,25.685,248.666,62.885
21.855,28.606,3.37,4.46,26.622,8.052,25.206,211.941,57.36
20.77,27.806,3.19,4.45,23.624,1.801,24.257,8.145,48.352
20.435,28.545,3.53,4.96,23.517,1.532,24.477,11.659,38.243
20.874,29.568,4.04,5.52,23.487,0.717,25.188,6.485,33.989
22.47,31.084,4.5,5.91,25.879,0.868,26.762,1.023,36.305
23.841,31.72,4.58,5.71,28.552,3.086,27.776,96.436,49.53
24.37,31.411,4.35,5.34,29.518,2.716,27.865,58.319,58.655
23.142,29.472,3.94,4.79,27.119,4.036,26.274,100.899,70.948
22.696,29.056,3.94,4.71,27.745,2.901,25.856,7.47,73.598
22.865,29.225,3.98,4.8,27.717,1.763,26.024,7.611,69.069
23.193,29.806,4.01,4.93,27.754,4.605,26.486,86.434,64.381
22.281,29.043,3.73,4.72,27.637,8.16,25.663,128.202,62.885
21.824,28.572,3.37,4.45,26.656,9.271,25.171,163.704,57.36
21.078,28.115,3.21,4.45,25.097,7.96,24.565,190.775,48.352
20.05,28.16,3.5,4.92,22.449,1.022,24.091,7.984,38.243
21.669,30.364,4.11,5.53,24.01,1.143,25.983,2.06,33.989
23.124,31.734,4.58,5.94,25.879,2.432,27.411,5.765,36.305
24.511,32.348,4.63,5.73,28.555,4.13,28.407,41.373,49.53
24.71,31.713,4.35,5.34,29.518,3.417,28.166,94.952,58.655
23.651,29.981,3.99,4.8,28.542,6.41,26.78,180.057,70.948
23.307,29.669,3.99,4.74,27.745,1.754,26.466,2.59,73.598
23.128,29.489,4.01,4.83,27.65,2.89,26.289,97.715,69.069
22.934,29.547,3.99,4.92,27.754,5.439,26.228,122.082,64.381
22.51,29.273,3.76,4.72,27.637,10.961,25.895,465.487,62.885
22.112,28.859,3.4,4.46,26.656,9.47,25.457,265.725,57.36
20.814,27.85,3.2,4.45,24.539,3.53,24.301,39.541,48.352
20.108,28.217,3.5,4.93,22.548,2.613,24.148,29.547,38.243
21.419,30.112,4.09,5.53,24.036,1.93,25.732,9.204,33.989
22.841,31.45,4.56,5.92,25.879,1.292,27.128,8.761,36.305
24.564,32.445,4.66,5.72,28.552,2.481,28.505,37.537,49.53
25.059,32.088,4.41,5.35,29.54,2.657,28.539,34.712,58.655
24.39,30.72,4.06,4.84,28.604,2.942,27.586,14.314,70.948
23.038,29.397,3.98,4.75,27.745,6.676,26.197,39.541,73.598
23.108,29.468,4.0,4.83,27.687,2.473,26.267,36.074,69.069
23.031,29.644,4.0,4.92,27.754,2.479,26.325,25.158,64.381
22.573,29.336,3.77,4.75,27.637,9.87,25.958,199.415,62.885
21.531,28.308,3.36,4.45,26.656,10.47,24.908,149.074,57.36
21.114,28.151,3.21,4.45,25.097,5.571,24.601,85.16,48.352
20.527,28.637,3.53,4.96,23.517,1.213,24.568,11.768,38.243
21.34,30.034,4.08,5.54,24.01,0.597,25.656,0.703,33.989
22.781,31.39,4.54,5.93,25.879,1.184,27.069,3.759,36.305
24.467,32.304,4.63,5.72,28.552,3.78,28.363,10.194,49.53
24.482,31.511,4.35,5.33,29.518,4.362,27.962,86.012,58.655
24.254,30.584,4.04,4.82,28.542,2.339,27.382,40.521,70.948
23.322,29.683,4.0,4.76,27.842,1.779,26.479,19.223,73.598
23.042,29.401,4.0,4.83,27.72,2.341,26.201,37.876,69.069
23.187,29.803,4.01,4.94,27.754,4.719,26.482,35.727,64.381
22.31,29.072,3.74,4.72,27.637,13.767,25.692,522.331,62.885
21.914,28.663,3.39,4.45,26.656,8.186,25.262,178.892,57.36
21.187,28.224,3.21,4.45,25.097,6.677,24.674,117.887,48.352
20.784,28.893,3.57,4.96,23.517,2.224,24.826,20.002,38.243
21.411,30.145,4.1,5.57,24.01,1.76,25.765,21.133,33.989
22.464,31.076,4.51,5.93,25.879,1.332,26.753,3.957,36.305
24.006,31.845,4.59,5.69,28.552,5.236,27.903,74.381,49.53
24.626,31.654,4.37,5.32,29.861,4.153,28.105,64.262,58.655
24.137,30.467,4.04,4.82,28.501,2.87,27.266,24.106,70.948
23.094,29.455,3.98,4.74,27.745,4.59,26.255,56.991,73.598
23.555,29.917,4.04,4.85,27.72,3.18,26.713,81.697,69.069
23.161,29.774,4.01,4.94,27.754,9.371,26.455,128.537,64.381
22.982,29.705,3.78,4.72,27.637,5.569,26.325,55.663,62.885
22.243,29.017,3.43,4.48,26.66,10.58,25.619,276.994,57.36
21.273,28.31,3.22,4.47,25.097,4.087,24.76,71.031,48.352
20.319,28.431,3.52,4.96,22.986,0.223,24.362,0.223,38.243
21.243,29.939,4.07,5.52,23.978,1.022,25.559,11.136,33.989
22.89,31.502,4.56,5.91,25.444,2.332,27.181,6.691,36.305
24.533,32.41,4.64,5.73,28.555,4.276,28.47,21.418,49.53
24.762,31.763,4.37,5.36,29.544,4.677,28.253,149.754,58.655
23.282,29.612,3.95,4.8,28.598,1.201,26.411,3.159,70.948
23.082,29.443,3.98,4.73,27.745,7.404,26.243,246.236,73.598
23.073,29.433,4.0,4.83,27.681,4.916,26.233,73.703,69.069
22.612,29.226,3.96,4.91,27.754,5.208,25.908,141.975,64.381
22.302,29.063,3.74,4.7,27.637,7.328,25.685,183.406,62.885
21.97,28.719,3.39,4.48,26.656,7.679,25.317,194.907,57.36
20.348,27.382,3.16,4.44,23.946,4.195,23.833,45.878,48.352
20.037,28.145,3.5,4.94,22.949,2.231,24.076,15.407,38.243
20.784,29.476,4.03,5.54,24.01,2.291,25.097,40.657,33.989
21.794,30.407,4.45,5.89,24.707,3.869,26.085,53.368,36.305
23.874,31.713,4.57,5.69,28.555,2.439,27.811,10.048,49.53
24.183,31.183,4.31,5.31,29.518,4.125,27.634,106.524,58.655
23.386,29.718,3.96,4.77,28.46,4.88,26.516,82.128,70.948
23.448,29.81,4.01,4.74,27.842,5.73,26.606,68.886,73.598
23.22,29.58,4.01,4.85,27.72,5.403,26.379,170.523,69.069
22.73,29.343,3.97,4.92,27.754,7.011,26.024,100.522,64.381
22.214,28.938,3.71,4.69,27.438,6.358,25.557,56.001,62.885
21.738,28.487,3.37,4.46,26.579,9.219,25.088,169.186,57.36
20.36,27.394,3.16,4.44,24.081,5.834,23.845,40.699,48.352
19.95,28.059,3.49,4.95,22.728,3.59,23.992,78.933,38.243
19.862,28.555,3.94,5.5,22.67,2.163,24.175,31.325,33.989
21.621,30.234,4.42,5.85,24.783,1.804,25.912,95.921,36.305
23.905,31.744,4.57,5.69,28.555,2.931,27.842,19.497,49.53
23.911,30.916,4.29,5.32,28.382,4.89,27.365,59.194,58.655
23.011,29.341,3.93,4.76,27.143,1.81,26.144,14.83,70.948
22.862,29.223,3.94,4.71,28.872,2.287,26.022,47.68,73.598
23.02,29.381,3.99,4.83,27.659,1.599,26.18,37.123,69.069
22.603,29.217,3.96,4.91,26.635,1.808,25.899,5.726,64.381
22.547,29.271,3.74,4.71,27.637,7.143,25.891,91.564,62.885
21.91,28.658,3.38,4.46,26.656,12.471,25.258,307.895,57.36
20.865,27.901,3.2,4.43,25.097,6.854,24.352,195.759,48.352
21.232,29.343,3.59,4.96,23.991,2.836,25.275,21.305,38.243
21.927,30.659,4.15,5.63,24.01,1.142,26.28,7.657,33.989
22.256,30.866,4.48,5.91,25.483,3.641,26.544,23.328,36.305
24.354,32.192,4.62,5.69,28.555,2.693,28.29,11.397,49.53
24.799,31.8,4.37,5.35,29.518,5.381,28.291,51.302,58.655
23.642,29.972,4.0,4.82,28.542,7.718,26.771,91.027,70.948
22.973,29.333,3.97,4.74,27.745,4.566,26.132,44.338,73.598
22.703,29.063,3.96,4.81,27.717,2.665,25.863,11.479,69.069
22.899,29.512,3.98,4.91,27.754,5.828,26.194,105.354,64.381
22.533,29.296,3.76,4.73,27.637,9.2,25.918,212.171,62.885
21.647,28.396,3.37,4.45,26.451,11.793,24.996,236.657,57.36
21.113,28.15,3.21,4.45,25.097,7.479,24.6,186.84,48.352
20.692,28.803,3.55,4.96,23.517,4.711,24.733,144.453,38.243
21.569,30.263,4.1,5.54,24.007,1.095,25.884,1.544,33.989
23.076,31.686,4.58,5.95,26.1,1.506,27.392,4.602,36.305
24.062,31.904,4.59,5.72,28.555,6.34,27.963,153.657,49.53
24.72,31.721,4.36,5.32,29.518,1.621,28.175,14.55,58.655
23.932,30.263,4.02,4.81,28.598,4.687,27.063,48.845,70.948
23.332,29.694,3.99,4.75,27.745,1.54,26.494,3.628,73.598
23.168,29.529,4.01,4.83,27.717,2.694,26.329,80.15,69.069
23.112,29.726,4.0,4.92,27.861,3.905,26.407,60.334,64.381
22.784,29.543,3.78,4.75,27.637,6.848,26.164,151.964,62.885
21.621,28.374,3.35,4.48,26.652,14.179,24.974,547.91,57.36
20.463,27.534,3.18,4.43,23.658,2.846,23.987,17.109,48.352
20.723,28.832,3.56,4.96,23.517,4.602,24.763,133.465,38.243
21.082,29.817,4.07,5.54,23.754,0.349,25.436,0.349,33.989
22.99,31.599,4.57,5.93,25.879,1.09,27.277,2.46,36.305
24.096,31.975,4.61,5.71,28.555,6.009,28.032,103.075,49.53
25.167,32.167,4.4,5.32,29.518,0.888,28.619,3.971,58.655
24.452,30.783,4.06,4.84,28.598,5.31,27.621,121.566,70.948
23.237,29.599,3.98,4.75,27.745,4.439,26.398,37.474,73.598
23.25,29.612,4.02,4.83,27.72,3.853,26.409,101.435,69.069
23.111,29.726,4.01,4.93,27.754,4.398,26.405,133.44,64.381
22.608,29.371,3.78,4.74,27.6,9.662,25.992,231.594,62.885
21.865,28.613,3.37,4.46,26.596,7.006,25.213,377.587,57.36
20.691,27.726,3.17,4.44,24.108,5.547,24.177,142.231,48.352
20.543,28.653,3.54,4.96,23.517,1.715,24.584,75.754,38.243
20.849,29.541,4.04,5.54,23.906,3.52,25.163,118.704,33.989
22.247,30.857,4.49,5.89,25.879,0.658,26.535,0.657,36.305
23.884,31.723,4.57,5.69,28.555,4.233,27.82,49.778,49.53
24.254,31.295,4.33,5.32,29.513,5.067,27.746,91.122,58.655
24.001,30.333,4.02,4.81,28.497,4.024,27.132,69.869,70.948
23.157,29.519,3.98,4.75,27.745,1.33,26.317,3.006,73.598
23.014,29.375,3.99,4.83,27.72,2.76,26.173,35.456,69.069
22.798,29.411,3.97,4.91,27.754,3.33,26.092,37.275,64.381
22.425,29.149,3.73,4.71,27.637,10.079,25.768,302.894,62.885
21.825,28.573,3.38,4.46,26.612,11.326,25.174,213.701,57.36
20.649,27.684,3.17,4.45,23.618,4.696,24.135,193.582,48.352
20.169,28.278,3.5,4.95,22.971,4.619,24.21,93.665,38.243
20.991,29.725,4.07,5.53,23.861,0.989,25.344,13.149,33.989
22.45,31.061,4.5,5.89,24.97,4.257,26.739,37.549,36.305
24.533,32.41,4.64,5.73,28.555,2.462,28.47,18.952,49.53
24.507,31.574,4.37,5.37,29.544,1.034,28.026,3.634,58.655
23.878,30.209,4.02,4.82,28.497,2.191,27.008,7.527,70.948
23.018,29.378,3.98,4.75,27.745,2.366,26.178,5.01,73.598
22.81,29.17,3.98,4.8,27.726,2.936,25.97,10.48,69.069
23.177,29.792,4.02,4.92,27.754,5.987,26.471,44.794,64.381
22.551,29.315,3.77,4.72,27.641,9.877,25.936,246.669,62.885
22.125,28.871,3.41,4.47,26.656,6.055,25.471,41.464,57.36
20.916,27.952,3.19,4.45,24.811,7.289,24.403,179.55,48.352
20.397,28.507,3.53,4.95,22.972,2.719,24.439,62.273,38.243
21.594,30.289,4.1,5.54,24.01,0.467,25.909,0.467,33.989
22.829,31.441,4.56,5.93,25.879,4.414,27.12,41.257,36.305
24.38,32.218,4.62,5.69,28.555,3.869,28.315,61.06,49.53
25.484,32.485,4.45,5.36,30.934,3.371,28.96,55.332,58.655
24.151,30.482,4.03,4.84,28.012,3.818,27.28,44.572,70.948
23.255,29.617,3.99,4.75,27.745,4.045,26.416,34.33,73.598
23.212,29.573,4.01,4.83,27.681,4.236,26.371,79.098,69.069
23.174,29.789,4.02,4.94,27.754,6.482,26.468,112.501,64.381
22.758,29.479,3.77,4.72,27.637,6.954,26.099,180.786,62.885
22.099,28.849,3.4,4.49,26.429,8.234,25.448,169.007,57.36
20.731,27.767,3.18,4.45,23.826,4.449,24.217,75.137,48.352
20.083,28.192,3.5,4.95,22.591,2.99,24.124,61.222,38.243
21.113,29.809,4.06,5.53,24.01,2.771,25.427,24.219,33.989
22.425,31.035,4.51,5.89,25.49,5.411,26.713,160.01,36.305
24.536,32.377,4.65,5.71,28.552,3.929,28.435,125.016,49.53
24.72,31.721,4.36,5.33,29.544,3.136,28.212,36.778,58.655
24.012,30.344,4.02,4.81,28.557,4.125,27.142,107.511,70.948
23.135,29.497,3.98,4.75,27.745,1.198,26.296,3.045,73.598
22.907,29.267,3.98,4.82,27.72,5.237,26.066,112.329,69.069
23.218,29.834,4.01,4.91,27.754,3.851,26.513,46.923,64.381
22.969,29.692,3.78,4.74,27.637,8.828,26.312,217.869,62.885
21.732,28.484,3.37,4.47,26.656,11.137,25.085,355.919,57.36
20.808,27.844,3.19,4.43,24.432,7.509,24.295,132.571,48.352
20.661,28.772,3.55,4.96,23.517,2.572,24.702,36.595,38.243
21.305,30.0,4.08,5.54,24.01,0.812,25.621,2.87,33.989
22.99,31.599,4.57,5.93,25.879,2.9,27.277,16.031,36.305
24.345,32.183,4.62,5.72,28.555,4.338,28.28,45.81,49.53
24.72,31.721,4.36,5.33,29.518,5.088,28.175,92.907,58.655
24.069,30.4,4.02,4.82,28.598,1.012,27.2,3.349,70.948
23.461,29.822,4.01,4.75,27.745,4.738,26.618,29.314,73.598
23.505,29.867,4.04,4.85,27.72,2.825,26.663,25.947,69.069
23.197,29.812,4.01,4.94,27.754,6.98,26.491,101.611,64.381
22.749,29.509,3.78,4.75,27.637,9.662,26.13,217.008,62.885
21.683,28.432,3.37,4.45,26.624,9.265,25.032,94.148,57.36
21.283,28.32,3.23,4.45,25.097,4.064,24.77,22.51,48.352
20.687,28.797,3.56,4.96,23.517,3.308,24.728,29.586,38.243
21.557,30.251,4.1,5.55,24.01,3.166,25.871,96.468,33.989
22.821,31.434,4.56,5.94,25.879,4.02,27.113,52.562,36.305
23.788,31.626,4.57,5.72,28.552,6.713,27.683,260.696,49.53
23.834,30.842,4.29,5.31,28.282,5.718,27.331,91.435,58.655
23.459,29.79,3.98,4.78,27.988,4.669,26.589,125.483,70.948
23.004,29.364,3.96,4.72,27.767,1.415,26.163,5.958,73.598
23.22,29.58,4.01,4.83,27.72,2.448,26.379,49.096,69.069
22.886,29.499,3.98,4.92,27.754,4.329,26.18,52.598,64.381
22.714,29.474,3.78,4.72,27.637,6.87,26.095,172.954,62.885
22.067,28.814,3.39,4.46,26.656,8.53,25.413,160.822,57.36
21.503,28.539,3.24,4.45,25.097,3.2,24.99,20.438,48.352
20.946,29.057,3.57,4.97,23.517,2.57,24.989,11.704,38.243
21.776,30.471,4.12,5.58,24.01,4.27,26.09,124.374,33.989
22.317,30.927,4.5,5.92,25.487,1.412,26.605,2.701,36.305
24.11,31.988,4.61,5.7,28.555,4.365,28.047,64.794,49.53
24.974,32.018,4.41,5.36,29.518,3.07,28.469,58.774,58.655
24.047,30.379,4.03,4.83,28.604,0.83,27.177,1.558,70.948
23.19,29.552,3.98,4.75,27.749,8.044,26.351,92.055,73.598
23.17,29.532,4.01,4.83,27.711,2.833,26.331,22.56,69.069
23.497,30.112,4.04,4.94,27.754,3.914,26.789,126.146,64.381
22.73,29.49,3.78,4.75,27.637,9.339,26.111,139.682,62.885
21.783,28.534,3.37,4.46,26.625,10.973,25.134,308.623,57.36
21.187,28.224,3.21,4.45,25.097,6.53,24.674,70.7,48.352
20.77,28.88,3.55,4.96,23.517,1.283,24.81,32.551,38.243
21.433,30.127,4.09,5.56,24.01,2.806,25.748,79.43,33.989
22.576,31.188,4.52,5.95,25.699,2.48,26.893,75.604,36.305
23.22,31.057,4.51,5.68,27.649,7.31,27.116,234.902,49.53
24.434,31.435,4.33,5.3,29.518,4.804,27.889,141.448,58.655
23.517,29.847,3.99,4.79,27.991,5.17,26.647,117.059,70.948
23.263,29.625,3.98,4.74,27.745,2.406,26.424,6.714,73.598
23.034,29.394,4.0,4.83,27.653,1.169,26.193,11.383,69.069
22.965,29.578,3.99,4.92,27.666,6.318,26.259,91.08,64.381
22.555,29.28,3.75,4.71,27.637,8.669,25.899,186.933,62.885
21.881,28.629,3.37,4.46,26.656,9.631,25.229,279.891,57.36
20.979,28.054,3.21,4.46,24.632,6.591,24.505,123.093,48.352
20.526,28.636,3.54,4.95,23.542,3.321,24.567,44.138,38.243
21.725,30.458,4.13,5.57,23.902,2.568,26.078,151.384,33.989
22.794,31.403,4.55,5.94,25.879,2.554,27.082,28.725,36.305
24.0,31.84,4.59,5.73,28.552,4.779,27.897,74.444,49.53
23.856,30.857,4.29,5.3,29.47,7.989,27.346,202.481,58.655
23.809,30.139,4.01,4.78,28.497,4.768,26.938,92.301,70.948
23.822,30.184,4.03,4.76,27.745,3.124,26.98,14.212,73.598
23.027,29.388,3.99,4.85,27.72,2.515,26.187,62.943,69.069
23.077,29.691,4.0,4.94,27.754,3.72,26.372,48.039,64.381
22.153,28.914,3.72,4.7,26.26,12.035,25.533,390.026,62.885
22.186,28.935,3.41,4.45,26.621,9.034,25.536,120.932,57.36
21.538,28.574,3.24,4.45,25.097,6.084,25.025,16.346,48.352
20.886,28.996,3.57,5.0,23.445,2.908,24.927,99.012,37.095
21.713,30.446,4.13,5.62,24.007,0.511,26.066,0.552,32.769
22.858,31.467,4.55,5.96,25.879,0.857,27.146,1.031,35.215
24.231,32.07,4.6,5.7,28.552,3.805,28.129,47.048,49.53
25.122,32.122,4.4,5.37,29.544,1.599,28.577,9.149,56.336
24.307,30.637,4.05,4.88,28.542,2.756,27.435,11.442,68.569
23.548,29.91,4.01,4.81,27.745,3.275,26.707,43.82,70.839
23.322,29.684,4.02,4.85,27.72,2.88,26.482,24.761,69.069
23.115,29.729,4.0,4.96,27.754,3.441,26.41,40.837,62.276
22.752,29.512,3.78,4.84,27.637,7.371,26.133,143.398,57.995
21.888,28.667,3.38,4.54,26.656,11.124,25.267,225.836,54.177
20.948,28.023,3.21,4.44,24.794,9.715,24.474,293.496,49.225
20.465,28.576,3.53,5.01,23.054,0.691,24.508,0.855,35.361
21.026,29.76,4.07,5.5,23.293,1.232,25.379,5.035,36.47
22.431,31.041,4.5,5.89,25.343,1.896,26.72,19.354,37.689
23.777,31.615,4.57,5.64,28.555,5.44,27.673,86.582,53.368
24.042,31.081,4.32,5.23,29.397,6.08,27.531,106.531,63.656
23.754,30.084,4.0,4.72,28.39,2.299,26.883,40.637,75.247
23.167,29.529,3.98,4.68,27.745,2.283,26.328,18.406,77.125
23.024,29.385,3.99,4.8,27.72,5.112,26.184,106.498,69.892
23.139,29.752,4.01,4.89,27.754,2.039,26.433,7.245,66.658
22.246,28.969,3.72,4.56,27.634,12.297,25.589,291.43,70.257
21.983,28.735,3.39,4.29,26.656,10.499,25.333,265.635,65.994
20.9,27.937,3.2,4.45,24.505,5.664,24.388,62.463,48.352
20.777,28.886,3.56,4.96,23.517,1.91,24.817,8.22,38.243
21.33,30.025,4.08,5.54,23.976,1.655,25.647,22.729,34.972
22.464,31.075,4.5,5.93,25.609,3.12,26.752,18.394,36.305
23.78,31.658,4.58,5.73,28.549,2.705,27.716,131.088,49.53
23.868,30.873,4.29,5.34,28.385,5.413,27.362,138.55,56.181
23.62,29.95,3.99,4.79,28.475,2.501,26.749,41.888,70.574
23.335,29.697,3.99,4.77,27.745,3.838,26.497,41.643,72.438
22.916,29.276,3.98,4.86,27.628,6.461,26.074,193.335,68.053
22.86,29.473,3.98,4.92,27.528,4.597,26.153,76.672,64.381
22.133,28.896,3.72,4.7,27.529,9.624,25.513,196.574,62.885
21.909,28.657,3.38,4.45,26.659,8.794,25.256,112.259,56.823
21.19,28.227,3.21,4.47,24.582,3.833,24.677,51.843,47.239
20.661,28.772,3.55,4.96,23.445,4.978,24.702,140.029,39.527
20.378,29.07,3.99,5.54,22.639,0.597,24.691,0.623,33.285
21.895,30.51,4.46,5.89,24.555,2.008,26.188,11.595,36.305
23.842,31.68,4.57,5.65,28.555,3.818,27.779,52.032,50.971
24.641,31.641,4.35,5.32,29.54,1.509,28.093,3.278,58.655
24.012,30.344,4.02,4.81,27.724,4.441,27.142,77.654,70.948
23.392,29.753,4.0,4.79,27.745,5.652,26.55,27.619,70.826
23.429,29.79,4.02,4.88,27.708,2.443,26.587,39.397,66.74
23.402,30.02,4.04,4.98,27.754,0.865,26.697,0.94,61.983
22.727,29.448,3.77,4.74,27.637,11.472,26.069,275.231,62.35
21.851,28.599,3.38,4.52,26.456,6.315,25.199,130.452,55.164
20.83,27.867,3.19,4.47,23.835,3.081,24.318,11.267,46.213
20.714,28.823,3.56,4.94,23.517,3.416,24.754,47.946,39.523
21.136,29.832,4.06,5.52,24.001,1.417,25.45,6.867,35.395
22.4,31.01,4.5,5.89,25.879,2.404,26.689,43.539,37.689
24.093,31.975,4.61,5.69,28.552,5.219,28.033,148.184,50.749
25.122,32.122,4.4,5.32,29.518,1.019,28.577,4.928,59.273
24.107,30.438,4.03,4.82,28.497,3.805,27.237,238.113,71.674
23.103,29.463,3.98,4.75,27.745,1.516,26.263,11.218,73.085
22.98,29.34,3.98,4.83,27.72,3.373,26.138,67.311,68.05
23.115,29.729,4.0,4.92,27.754,3.092,26.41,17.42,64.381
22.589,29.353,3.78,4.75,27.637,9.983,25.973,170.269,62.353
21.736,28.488,3.37,4.49,26.305,8.745,25.089,191.892,55.689
21.222,28.259,3.22,4.44,24.632,5.106,24.709,73.866,48.352
21.092,29.203,3.58,4.97,23.352,1.292,25.134,8.287,38.243
21.671,30.366,4.11,5.56,24.01,3.459,25.985,180.179,34.336
22.804,31.413,4.55,5.95,25.571,5.163,27.092,88.215,35.641
24.261,32.1,4.61,5.69,28.555,2.348,28.158,99.479,50.619
24.713,31.712,4.35,5.29,29.518,3.346,28.165,24.269,60.922
23.613,29.943,3.99,4.8,28.557,3.154,26.743,28.626,70.571
23.699,30.06,4.03,4.77,27.745,3.203,26.857,62.547,72.269
23.577,29.939,4.04,4.87,27.72,2.629,26.734,12.322,67.944
23.295,29.912,4.02,4.96,27.754,6.51,26.589,84.874,63.329
22.715,29.436,3.77,4.71,27.637,6.881,26.057,75.37,62.885
22.125,28.871,3.41,4.45,26.656,9.94,25.471,325.893,57.916
21.611,28.647,3.24,4.45,25.097,6.421,25.098,96.791,48.352
20.882,28.992,3.57,4.96,23.517,2.105,24.924,30.104,38.243
21.783,30.516,4.14,5.57,24.01,1.158,26.136,10.986,34.601
22.435,31.045,4.5,5.93,25.879,4.402,26.724,65.519,37.263
23.691,31.533,4.57,5.68,28.555,6.359,27.592,127.233,49.53
24.894,31.899,4.37,5.4,29.518,2.864,28.349,42.27,54.159
23.916,30.247,4.02,4.8,28.557,1.247,27.046,6.846,72.526
23.088,29.449,3.98,4.7,27.771,3.608,26.248,14.076,75.184
23.656,30.017,4.05,4.9,27.753,3.905,26.814,86.47,65.372
23.462,30.077,4.04,5.01,27.754,5.688,26.754,134.241,61.196
22.523,29.287,3.76,4.73,27.637,9.01,25.908,192.303,62.885
22.062,28.81,3.4,4.46,26.656,10.533,25.41,337.959,56.903
21.035,28.11,3.22,4.46,23.812,3.752,24.561,13.328,47.239
21.274,29.385,3.59,5.01,23.517,1.505,25.317,10.169,36.852
21.402,30.096,4.08,5.54,24.01,4.452,25.717,68.928,35.137
22.768,31.381,4.56,5.94,25.879,5.104,27.059,104.901,36.305
23.739,31.577,4.57,5.71,28.555,4.272,27.636,30.581,48.283
24.762,31.763,4.37,5.35,29.518,2.334,28.253,7.859,57.452
23.821,30.151,4.02,4.82,28.501,1.037,26.951,2.898,70.948
23.05,29.41,3.98,4.72,27.749,5.553,26.209,91.487,74.716
23.177,29.538,4.01,4.86,27.72,4.644,26.336,44.739,67.61
23.145,29.76,4.02,4.94,27.754,5.381,26.439,42.437,64.381
22.368,29.092,3.73,4.77,27.467,6.457,25.71,71.209,60.594
21.839,28.59,3.37,4.52,26.652,5.478,25.19,58.39,54.188
21.136,28.173,3.22,4.45,25.097,5.097,24.623,96.714,48.352
20.4,28.51,3.53,4.96,23.349,2.929,24.442,51.428,38.243
20.878,29.574,4.04,5.54,23.938,2.151,25.193,75.244,33.989
22.31,30.92,4.5,5.91,25.191,1.156,26.599,4.41,36.305
23.538,31.415,4.55,5.7,28.555,6.773,27.473,179.567,50.661
23.813,30.814,4.28,5.29,28.147,5.728,27.303,212.167,58.655
23.551,29.881,3.99,4.8,28.604,1.094,26.681,6.052,70.113
23.038,29.397,3.98,4.75,27.771,0.749,26.197,1.174,73.082
22.933,29.292,3.99,4.83,27.72,3.932,26.093,104.677,68.053
23.133,29.748,4.01,4.94,27.754,3.507,26.427,66.799,63.205
22.83,29.552,3.78,4.77,27.637,7.194,26.172,162.397,61.383
21.571,28.323,3.36,4.43,26.652,11.241,24.923,296.523,58.7
21.196,28.233,3.22,4.5,25.097,2.251,24.683,18.405,46.309
20.148,28.256,3.5,5.0,22.98,0.699,24.188,2.231,36.275
21.139,29.835,4.06,5.51,24.036,0.78,25.455,2.682,34.506
22.897,31.51,4.56,5.93,25.762,1.032,27.188,20.653,36.305
23.915,31.754,4.58,5.71,28.555,6.751,27.851,184.611,49.53
24.647,31.647,4.35,5.31,29.544,5.13,28.099,111.462,58.655
24.254,30.584,4.04,4.81,28.542,4.676,27.382,20.964,71.431
23.495,29.856,4.01,4.7,27.771,1.42,26.653,20.35,77.309
23.166,29.528,4.01,4.79,27.72,1.025,26.327,2.203,70.22
24.152,30.768,4.1,4.94,28.989,3.826,27.444,92.34,64.381
23.474,30.238,3.84,4.81,27.637,8.739,26.853,225.47,61.809
22.186,28.932,3.41,4.42,26.656,12.372,25.533,527.266,61.318
21.412,28.448,3.24,4.43,25.097,4.881,24.899,77.689,49.506
21.17,29.281,3.59,4.96,23.517,3.087,25.213,89.365,39.174
21.656,30.35,4.11,5.54,24.036,1.845,25.97,7.008,35.524
22.85,31.458,4.55,5.89,25.879,0.811,27.137,4.273,38.947
24.461,32.298,4.63,5.65,28.555,4.846,28.357,99.391,53.22
25.264,32.264,4.42,5.29,29.544,4.701,28.755,29.225,61.621
24.158,30.489,4.04,4.79,28.598,5.252,27.286,94.666,73.177
23.614,29.975,4.02,4.75,27.745,1.704,26.771,18.182,73.598
23.543,29.905,4.05,4.85,27.717,2.968,26.701,56.427,69.069
23.4,30.014,4.03,4.91,27.754,6.011,26.691,76.234,65.942
22.966,29.689,3.78,4.71,27.637,8.549,26.309,166.252,64.409
22.11,28.859,3.41,4.45,26.656,12.111,25.458,264.85,58.7
21.534,28.57,3.24,4.46,25.097,5.704,25.021,60.903,47.569
21.143,29.256,3.59,5.01,23.517,0.46,25.187,0.459,37.095
21.681,30.414,4.13,5.58,24.01,0.73,26.034,0.877,33.989
22.882,31.49,4.55,5.95,25.879,2.171,27.169,10.664,36.305
23.88,31.719,4.57,5.69,28.555,5.134,27.816,169.746,49.53
24.907,31.907,4.38,5.32,29.544,5.045,28.358,61.422,58.624
24.266,30.596,4.05,4.83,28.63,2.041,27.394,15.981,71.008
23.318,29.681,4.0,4.74,27.771,1.736,26.478,9.823,74.37
23.364,29.725,4.02,4.86,27.72,3.271,26.522,93.327,68.01
23.307,29.924,4.03,4.94,27.754,4.794,26.601,62.038,64.032
22.969,29.691,3.79,4.74,27.637,8.437,26.312,232.797,62.885
22.244,28.991,3.41,4.52,26.656,7.039,25.593,148.103,55.164
21.126,28.163,3.21,4.4,25.097,10.52,24.613,238.816,51.228
20.827,28.936,3.57,4.96,23.517,4.565,24.869,161.518,39.196
20.978,29.713,4.06,5.57,23.973,1.881,25.332,17.477,33.004
22.349,30.962,4.5,5.93,25.566,1.893,26.64,3.395,36.305
23.281,31.159,4.54,5.69,27.603,5.676,27.217,129.22,50.334
23.761,30.766,4.28,5.26,27.955,6.936,27.255,81.36,59.748
23.444,29.777,3.98,4.72,27.06,1.225,26.576,4.652,74.063
23.096,29.457,3.98,4.71,27.771,2.032,26.256,9.697,74.81
23.176,29.536,4.01,4.87,27.711,2.439,26.337,13.879,66.677
23.121,29.737,4.01,4.94,27.754,2.911,26.416,4.513,64.799
21.913,28.637,3.69,4.71,26.128,10.648,25.256,284.013,62.353
21.825,28.573,3.38,4.42,26.105,7.984,25.174,173.397,58.7
21.248,28.285,3.22,4.45,25.097,5.39,24.735,41.633,47.436
20.856,28.966,3.57,4.96,23.517,1.429,24.899,11.9,38.243
21.703,30.398,4.12,5.56,23.902,3.617,26.017,155.281,34.432
22.144,30.754,4.48,5.93,25.078,5.051,26.432,131.291,36.305
23.7,31.542,4.57,5.68,28.191,3.705,27.601,55.858,50.071
24.625,31.626,4.35,5.33,29.518,3.087,28.077,74.08,57.3
24.037,30.369,4.02,4.82,28.598,4.019,27.168,230.469,70.044
23.799,30.161,4.03,4.75,27.745,1.158,26.958,16.431,73.598
23.847,30.209,4.07,4.93,27.726,2.188,27.005,62.411,65.128
23.839,30.455,4.08,4.99,27.041,4.915,27.133,172.074,61.983
23.574,30.338,3.85,4.84,27.637,9.534,26.954,243.476,59.225
22.137,28.883,3.4,4.49,26.656,11.637,25.483,213.836,57.617
20.931,28.007,3.21,4.48,24.47,5.791,24.458,87.507,47.303
20.597,28.706,3.54,4.97,23.407,1.16,24.637,5.717,37.064
21.396,30.091,4.09,5.54,23.979,1.502,25.712,4.087,34.601
22.589,31.201,4.53,5.94,25.879,2.369,26.878,10.306,36.305
23.329,31.207,4.54,5.7,27.533,7.265,27.265,106.743,49.087
24.393,31.394,4.33,5.29,29.518,1.488,27.846,58.141,58.655
24.197,30.527,4.04,4.89,28.598,2.421,27.324,9.387,66.939
23.554,29.917,4.01,4.75,27.745,1.674,26.713,3.616,73.598
23.364,29.725,4.02,4.87,27.726,3.28,26.522,37.253,67.585
23.367,29.985,4.04,4.97,27.754,2.513,26.662,12.307,62.733
22.896,29.617,3.78,4.79,27.637,9.146,26.237,191.432,60.52
21.67,28.418,3.37,4.45,26.656,10.189,25.019,259.993,58.7
20.731,27.767,3.18,4.45,23.914,5.3,24.217,41.016,47.626
20.137,28.245,3.5,4.97,22.467,1.163,24.178,8.382,36.666
21.047,29.743,4.05,5.54,24.01,0.931,25.361,13.225,33.989
22.26,30.87,4.49,5.91,25.879,5.686,26.548,100.663,36.305
23.538,31.415,4.55,5.7,28.555,4.424,27.473,71.77,49.53
24.402,31.404,4.33,5.29,29.518,3.362,27.858,69.552,58.866
24.002,30.334,4.02,4.75,28.542,2.748,27.133,70.314,73.732
23.605,29.965,4.03,4.75,27.745,2.258,26.761,9.493,73.598
23.249,29.611,4.02,4.8,27.698,3.134,26.408,31.672,71.425
23.238,29.854,4.02,4.91,27.754,4.522,26.532,66.519,65.569
22.68,29.401,3.76,4.71,27.637,8.824,26.022,130.025,64.041
22.105,28.852,3.4,4.37,26.656,10.729,25.451,285.806,62.501
21.39,28.427,3.24,4.4,25.097,7.612,24.877,191.951,50.979
21.14,29.252,3.58,4.94,23.517,2.725,25.183,68.772,40.788
21.374,30.068,4.09,5.52,24.007,3.115,25.69,15.341,36.382
22.283,30.893,4.5,5.88,25.879,6.09,26.571,190.263,39.147
23.682,31.52,4.56,5.64,28.591,8.263,27.578,281.943,51.602
24.936,31.966,4.4,5.35,29.518,3.409,28.415,65.036,57.66
24.152,30.482,4.03,4.86,28.415,4.757,27.281,18.975,68.691
23.623,29.984,4.03,4.71,27.745,8.367,26.78,178.349,76.049
23.565,29.926,4.04,4.87,27.869,4.107,26.725,63.556,68.877
22.981,29.595,3.99,4.94,27.754,5.561,26.276,47.888,64.896
22.13,28.893,3.72,4.7,27.637,9.664,25.51,156.954,63.019
22.132,28.879,3.41,4.52,26.621,3.793,25.48,21.685,54.003
21.271,28.307,3.22,4.45,24.632,3.74,24.758,40.527,48.352
20.997,29.11,3.57,4.96,23.517,3.065,25.041,110.356,39.523
21.288,29.984,4.08,5.56,24.036,1.177,25.605,16.2,33.989
22.519,31.131,4.52,5.93,25.879,1.824,26.808,37.308,36.305
23.918,31.758,4.58,5.72,28.552,2.408,27.855,30.238,48.547
24.581,31.609,4.36,5.38,29.518,3.435,28.061,87.228,55.786
23.607,29.937,4.0,4.79,28.604,1.363,26.737,6.223,70.948
23.34,29.703,4.0,4.74,27.767,3.523,26.5,40.009,73.183
23.353,29.715,4.03,4.87,27.72,3.636,26.513,71.409,67.311
23.461,30.076,4.04,4.94,27.754,2.458,26.753,40.513,64.381
23.013,29.736,3.79,4.81,27.637,6.822,26.356,168.169,59.049
22.278,29.028,3.42,4.49,26.659,10.585,25.629,226.427,57.36
20.923,27.958,3.2,4.48,25.097,5.672,24.41,57.244,47.242
20.454,28.564,3.53,5.0,23.346,2.54,24.495,51.826,35.993
21.116,29.812,4.06,5.54,23.878,0.73,25.43,1.081,32.838
22.913,31.521,4.56,5.93,25.879,0.652,27.2,0.667,35.835
24.156,32.034,4.61,5.74,28.555,4.706,28.093,81.371,49.523
24.282,31.283,4.33,5.31,29.518,6.451,27.775,140.111,58.655
24.03,30.362,4.02,4.75,28.598,2.361,27.161,29.553,73.729
23.434,29.796,4.0,4.71,27.745,4.98,26.592,92.7,75.519
23.652,30.013,4.05,4.86,27.72,6.938,26.809,145.452,69.069
23.242,29.858,4.02,4.94,27.754,2.03,26.536,3.823,64.381
22.758,29.518,3.78,4.74,27.637,6.969,26.138,78.658,63.381
21.929,28.706,3.39,4.51,26.656,8.705,25.305,287.157,55.301
21.021,28.059,3.21,4.53,24.601,3.691,24.509,31.037,44.517
20.404,28.514,3.53,4.96,23.413,1.709,24.446,7.468,37.064
21.38,30.074,4.08,5.54,23.979,3.585,25.694,100.078,33.989
22.82,31.429,4.55,5.95,25.776,2.941,27.108,19.431,36.305
23.633,31.51,4.57,5.69,28.555,3.58,27.569,34.007,50.682
25.062,32.091,4.41,5.33,29.518,3.954,28.542,67.254,58.655
23.843,30.174,4.02,4.82,28.557,0.791,26.973,1.52,71.496
23.057,29.418,3.98,4.71,27.745,2.393,26.217,6.833,75.538
22.933,29.292,3.99,4.85,27.72,5.881,26.093,163.368,67.136
23.023,29.637,3.99,4.91,27.754,1.642,26.319,15.035,65.633
22.302,29.063,3.74,4.78,27.637,8.616,25.685,174.437,60.434
22.005,28.754,3.39,4.45,26.593,8.324,25.352,79.205,57.356
21.285,28.322,3.23,4.48,25.097,3.853,24.772,30.278,47.07
20.588,28.698,3.54,4.96,23.517,2.386,24.629,20.991,39.174
20.499,29.191,4.0,5.49,22.81,1.528,24.812,14.903,35.128
22.797,31.406,4.55,5.93,25.879,2.742,27.085,19.819,36.305
23.468,31.307,4.54,5.68,28.591,7.384,27.405,274.12,49.53
24.726,31.727,4.36,5.34,29.518,3.07,28.178,13.964,57.252
23.664,29.993,3.99,4.83,28.181,1.271,26.792,3.644,69.645
23.114,29.475,3.98,4.75,27.771,4.247,26.274,89.916,72.359
23.482,29.844,4.03,4.83,27.72,3.153,26.64,89.71,69.069
23.406,30.024,4.04,4.96,27.754,7.52,26.701,131.486,62.85
23.159,29.883,3.81,4.78,27.637,5.612,26.5,128.259,60.395
22.156,28.906,3.41,4.46,26.656,11.207,25.506,220.56,58.64
21.253,28.29,3.22,4.53,25.097,2.941,24.74,15.122,44.841
20.876,28.986,3.57,5.07,23.517,3.071,24.918,62.385,32.677
21.726,30.42,4.12,5.6,24.01,2.941,26.04,109.301,33.187
22.642,31.252,4.54,5.95,25.879,1.21,26.958,3.4,35.219
24.083,31.965,4.6,5.73,28.552,4.277,28.024,23.4,48.543
24.888,31.89,4.37,5.35,29.544,4.159,28.34,116.011,57.271
24.034,30.366,4.02,4.91,28.598,3.795,27.165,44.769,66.177
23.358,29.719,4.0,4.8,27.842,4.768,26.516,51.54,70.81
23.236,29.598,4.01,4.86,27.72,3.496,26.398,37.376,67.766
23.139,29.754,4.01,4.98,27.754,0.763,26.433,0.863,61.349
22.735,29.457,3.77,4.72,27.637,7.556,26.076,85.969,62.372
22.376,29.127,3.43,4.51,26.497,5.204,25.728,54.927,54.777
21.794,28.829,3.26,4.45,25.097,4.475,25.279,87.107,48.352
21.483,29.593,3.61,4.98,23.517,1.928,25.526,17.159,39.121
21.715,30.41,4.12,5.58,24.036,2.743,26.03,52.555,32.773
23.745,32.355,4.63,5.96,26.797,1.845,28.035,7.126,36.312
24.369,32.207,4.62,5.75,28.555,6.261,28.305,220.512,48.252
25.242,32.243,4.42,5.37,29.518,2.012,28.733,18.799,56.327
24.71,31.04,4.09,4.89,28.501,4.643,27.842,104.351,68.437
23.403,29.765,4.0,4.78,27.745,5.609,26.563,58.338,72.446
23.605,29.966,4.05,4.9,27.72,2.267,26.761,26.523,66.695
23.367,29.985,4.04,5.0,27.754,4.951,26.662,118.095,61.47
22.75,29.47,3.77,4.76,27.637,11.054,26.092,329.656,61.775
22.062,28.81,3.4,4.52,26.656,8.898,25.41,191.109,54.986
21.117,28.154,3.21,4.5,25.097,3.236,24.604,25.223,45.815
20.943,29.054,3.57,4.96,23.517,4.115,24.986,146.795,38.568
21.594,30.289,4.1,5.62,24.036,1.049,25.909,4.221,32.053
22.409,31.022,4.5,5.94,25.879,4.107,26.701,83.126,35.541
23.883,31.722,4.57,5.68,28.552,7.419,27.819,166.158,49.461
24.92,31.921,4.38,5.35,29.423,4.203,28.372,111.68,57.107
24.114,30.445,4.03,4.83,28.497,1.012,27.243,3.861,70.832
23.069,29.428,3.98,4.75,27.745,3.434,26.228,23.487,73.153
22.869,29.229,3.98,4.83,27.72,5.024,26.029,184.968,67.979
23.168,29.783,4.02,4.95,27.754,3.39,26.462,31.857,63.227
22.043,28.766,3.7,4.71,27.058,9.678,25.383,205.015,62.372
21.704,28.453,3.37,4.5,26.649,4.143,25.054,40.859,54.227
21.303,28.339,3.23,4.44,25.097,6.6,24.79,100.8,48.352
21.186,29.297,3.59,4.95,23.517,3.483,25.228,31.345,40.574
21.359,30.053,4.08,5.54,24.01,1.707,25.674,23.2,35.333
22.33,30.94,4.5,5.91,25.879,1.098,26.619,1.645,37.115
23.539,31.377,4.54,5.64,28.591,7.589,27.435,216.56,52.81
23.736,30.783,4.29,5.26,27.785,4.688,27.231,94.306,60.922
23.204,29.535,3.95,4.57,27.515,1.706,26.337,90.119,81.528
22.865,29.225,3.95,4.7,27.745,2.49,26.025,58.107,74.948
22.955,29.315,3.99,4.8,28.483,4.037,26.115,42.318,69.586
23.123,29.736,4.0,4.91,27.754,5.445,26.417,88.855,65.444
22.554,29.318,3.78,4.72,27.637,8.168,25.939,234.725,63.805
21.701,28.452,3.37,4.44,26.451,7.722,25.053,251.372,58.709
20.685,27.72,3.18,4.45,23.877,4.644,24.17,341.251,47.331
20.383,28.494,3.53,4.92,23.517,1.879,24.425,80.449,39.275
21.008,29.742,4.07,5.52,23.994,0.822,25.361,0.82,35.114
22.481,31.092,4.51,5.93,25.879,1.181,26.769,2.875,35.714
23.66,31.498,4.56,5.69,28.555,4.335,27.557,13.567,50.408
23.577,30.582,4.25,5.26,27.759,0.995,27.031,5.242,60.106
23.257,29.589,3.96,4.67,28.281,6.296,26.391,267.049,77.145
22.491,28.852,3.91,4.66,26.838,2.619,25.65,21.052,76.12
23.069,29.43,4.0,4.8,27.72,3.17,26.23,130.221,69.753
22.615,29.229,3.96,4.89,27.754,3.593,25.911,44.022,66.729
21.942,28.665,3.69,4.67,26.211,8.95,25.283,129.951,64.075
21.837,28.588,3.38,4.44,26.656,9.809,25.189,418.058,57.698
21.032,28.069,3.21,4.47,25.097,4.985,24.519,62.975,47.331
20.407,28.518,3.52,4.94,23.517,1.281,24.449,8.518,38.742
21.219,29.915,4.08,5.54,24.01,1.914,25.536,12.685,35.306
21.924,30.539,4.45,5.92,24.491,1.246,26.218,3.985,35.943
23.502,31.378,4.54,5.7,27.17,2.155,27.436,29.191,48.854
24.224,31.265,4.33,5.24,29.518,5.152,27.716,155.24,62.135
23.892,30.223,4.01,4.69,28.542,4.891,27.023,225.401,77.425
23.059,29.42,3.98,4.66,27.745,4.799,26.22,114.013,78.631
22.818,29.177,3.98,4.78,27.696,2.833,25.978,36.466,71.374
23.098,29.711,4.0,4.93,27.754,5.099,26.392,88.653,64.381
22.377,29.103,3.73,4.66,27.637,9.508,25.721,234.65,66.433
21.531,28.311,3.36,4.42,26.656,11.958,24.911,250.046,59.466
21.236,28.272,3.22,4.39,25.097,7.251,24.723,149.544,50.594
21.163,29.275,3.59,4.96,23.517,1.78,25.206,16.335,38.701
21.425,30.119,4.08,5.51,24.036,1.468,25.739,6.665,36.148
22.762,31.371,4.55,5.91,25.879,3.345,27.05,38.326,37.689
23.74,31.619,4.58,5.73,28.555,5.256,27.676,115.001,49.705
23.76,30.801,4.29,5.25,29.518,7.324,27.254,201.833,61.052
23.857,30.188,4.01,4.82,28.598,2.179,26.988,32.553,69.075
23.205,29.565,3.99,4.7,27.745,1.142,26.364,2.347,76.162
22.668,29.03,3.96,4.78,27.72,5.271,25.828,83.715,71.045
22.949,29.562,3.99,4.92,27.754,2.408,26.243,21.245,64.799
22.18,28.904,3.71,4.64,27.637,8.581,25.523,133.269,65.532
22.186,28.932,3.41,4.42,26.656,7.375,25.533,108.075,58.618
21.883,28.957,3.29,4.48,25.097,2.545,25.407,35.796,47.732
21.49,29.6,3.62,5.0,23.517,1.829,25.531,11.0,38.046
21.94,30.672,4.16,5.64,24.01,2.795,26.293,10.029,33.265
22.905,31.514,4.54,6.0,25.879,0.358,27.192,0.365,33.417
24.102,31.984,4.61,5.73,28.555,5.928,28.043,234.964,48.617
24.797,31.798,4.38,5.35,29.518,6.391,28.289,113.261,57.185
23.939,30.27,4.02,4.74,28.394,6.947,27.069,112.039,75.897
23.295,29.656,3.99,4.66,27.771,1.191,26.452,7.819,77.889
23.508,29.87,4.04,4.85,27.681,4.122,26.667,52.714,68.292
23.334,29.951,4.03,4.94,27.754,3.107,26.628,47.749,65.183
22.589,29.353,3.78,4.7,27.637,8.63,25.973,265.927,65.048
21.91,28.689,3.39,4.46,26.656,9.659,25.289,190.87,57.577
21.302,28.338,3.23,4.45,25.097,5.188,24.789,44.821,47.597
21.427,29.538,3.62,4.96,23.517,1.169,25.47,3.782,39.523
21.45,30.184,4.1,5.56,24.036,1.999,25.804,28.641,35.197
22.463,31.076,4.51,5.96,25.879,1.174,26.755,9.752,35.295
23.573,31.454,4.56,5.74,28.552,5.149,27.512,34.316,47.654
23.935,30.938,4.29,5.21,29.518,4.175,27.388,21.284,62.538
24.069,30.4,4.02,4.82,28.501,0.459,27.2,0.778,69.365
23.3,29.662,3.99,4.71,27.771,10.486,26.462,169.214,75.485
23.364,29.725,4.02,4.88,27.659,0.807,26.522,2.107,67.357
22.984,29.598,3.99,4.9,27.754,3.162,26.28,7.954,66.57
22.421,29.145,3.73,4.77,27.637,9.062,25.764,117.557,61.058
21.469,28.222,3.35,4.25,26.656,12.455,24.822,487.241,66.918
21.773,28.807,3.25,4.46,25.097,3.693,25.258,22.934,47.242
21.007,29.12,3.57,4.91,23.517,4.488,25.05,160.193,42.313
21.434,30.128,4.09,5.48,24.036,1.325,25.748,5.556,37.506
23.191,31.802,4.58,5.78,25.879,1.989,27.478,25.351,44.739
24.292,32.131,4.61,5.73,28.555,4.775,28.189,54.739,49.53
24.452,31.453,4.33,5.28,29.518,4.041,27.904,150.401,61.103
23.456,29.787,3.98,4.68,28.542,5.972,26.586,68.702,77.103
23.22,29.581,3.98,4.66,27.434,4.332,26.379,19.238,77.384
23.361,29.722,4.02,4.8,27.659,3.889,26.519,24.666,71.23
23.242,29.858,4.03,4.94,27.754,2.738,26.537,30.506,63.725
22.978,29.741,3.8,4.78,27.637,7.581,26.359,169.993,60.813
22.172,28.952,3.41,4.5,26.656,8.334,25.551,104.471,56.538
21.261,28.298,3.22,4.46,25.097,4.385,24.748,82.56,48.358
20.709,28.82,3.56,4.92,23.371,1.854,24.751,3.614,40.644
21.478,30.211,4.11,5.51,24.01,2.487,25.831,48.584,37.539
22.55,31.162,4.52,5.93,25.879,2.129,26.84,5.764,36.305
23.994,31.833,4.59,5.69,28.552,5.044,27.89,83.037,50.506
24.174,31.174,4.31,5.27,29.518,6.882,27.624,267.01,59.773
24.114,30.445,4.03,4.89,28.542,1.655,27.243,5.501,66.891
23.306,29.668,3.99,4.71,27.749,0.957,26.468,2.401,75.733
23.361,29.722,4.02,4.79,27.72,3.505,26.519,75.601,71.374
23.333,29.95,4.03,4.93,27.754,5.163,26.628,66.535,65.63
22.265,29.026,3.74,4.6,27.64,11.56,25.647,360.383,69.501
21.923,28.703,3.39,4.52,26.625,6.496,25.302,99.294,53.932
21.538,28.574,3.24,4.48,25.097,5.93,25.025,56.953,47.309
20.765,28.875,3.56,4.9,23.517,4.401,24.805,155.438,43.076
21.286,29.982,4.07,5.57,23.808,1.39,25.602,12.726,32.999
22.409,31.022,4.5,5.91,25.879,4.783,26.701,114.109,37.462
23.696,31.534,4.57,5.69,28.291,5.873,27.593,66.19,49.047
24.835,31.836,4.39,5.32,29.518,3.618,28.326,13.633,57.278
24.549,30.88,4.07,4.8,28.542,3.237,27.681,94.772,72.587
23.687,30.048,4.03,4.78,27.745,4.487,26.845,112.393,72.99
23.818,30.18,4.07,4.85,27.72,5.025,26.976,49.193,69.069
23.895,30.512,4.09,5.0,27.754,2.718,27.189,59.472,63.169
22.918,29.64,3.78,4.74,27.663,7.995,26.259,122.575,63.18
22.11,28.859,3.41,4.45,26.656,10.037,25.458,399.853,58.491
21.437,28.474,3.24,4.45,25.097,5.961,24.924,191.438,48.352
20.834,28.943,3.57,5.02,23.517,1.051,24.876,2.194,35.135
22.165,30.857,4.16,5.61,24.036,1.302,26.476,9.364,32.773
23.228,31.84,4.58,5.95,25.879,3.736,27.516,36.108,35.74
24.702,32.54,4.67,5.74,28.555,2.808,28.6,20.137,48.872
25.161,32.161,4.41,5.37,29.518,3.202,28.637,27.51,57.278
24.452,30.783,4.06,4.91,28.538,0.894,27.621,6.671,67.762
23.249,29.611,3.99,4.75,27.745,9.789,26.41,194.564,74.121
23.212,29.573,4.01,4.83,27.72,3.293,26.371,40.174,69.069
23.221,29.838,4.02,4.92,27.754,4.767,26.517,37.425,64.988
22.602,29.365,3.77,4.8,27.637,8.65,25.985,102.798,59.647
21.827,28.603,3.38,4.47,26.648,6.388,25.204,125.691,56.586
21.3,28.337,3.23,4.5,24.415,6.079,24.787,311.743,45.64
20.937,29.048,3.57,5.01,23.517,0.988,24.98,7.32,37.003
21.147,29.843,4.06,5.52,24.014,3.743,25.461,102.058,35.857
22.421,31.031,4.51,5.93,25.879,2.221,26.709,23.252,36.117
23.703,31.545,4.57,5.69,28.555,4.8,27.604,78.126,49.53
24.434,31.462,4.35,5.31,29.518,4.731,27.914,28.179,58.655
23.936,30.267,4.02,4.9,28.479,4.551,27.066,50.827,65.642
23.626,29.987,4.03,4.86,27.745,2.437,26.783,10.426,67.152
23.361,29.722,4.02,4.85,27.72,5.668,26.519,126.033,68.555
23.598,30.213,4.06,4.96,27.754,5.453,26.891,103.125,63.257
22.831,29.592,3.78,4.78,27.637,8.866,26.212,233.294,61.349
22.208,28.954,3.41,4.46,26.656,8.132,25.555,258.327,57.605
21.225,28.262,3.21,4.4,24.15,8.491,24.712,150.719,50.881
21.332,29.442,3.6,4.92,23.517,2.207,25.374,30.47,40.676
22.203,30.894,4.17,5.57,24.036,0.938,26.514,3.083,34.523
23.071,31.681,4.58,5.98,25.879,3.085,27.359,22.196,35.79
24.052,31.892,4.59,5.73,28.555,5.157,27.95,90.572,49.235
24.462,31.501,4.35,5.38,29.518,2.785,27.953,17.178,56.715
23.561,29.892,3.99,4.84,28.598,3.381,26.692,98.214,67.951
23.259,29.621,3.98,4.7,27.749,2.46,26.42,29.558,74.945
23.482,29.844,4.03,4.87,28.03,4.061,26.64,175.984,67.819
23.037,29.65,4.0,4.95,27.754,7.661,26.331,97.305,64.176
22.293,29.055,3.74,4.75,27.637,11.449,25.675,293.189,61.094
22.363,29.112,3.43,4.44,26.656,8.992,25.711,118.132,58.155
21.538,28.574,3.24,4.45,25.097,6.032,25.025,163.894,48.905
20.573,28.684,3.54,5.01,23.517,1.97,24.613,8.792,37.003
20.912,29.607,4.04,5.66,24.014,1.344,25.227,6.955,28.843
22.352,30.965,4.5,5.93,25.879,3.088,26.643,194.363,34.004
24.219,32.058,4.61,5.78,28.552,2.634,28.117,21.08,45.55
24.189,31.229,4.33,5.31,29.518,4.647,27.68,43.663,59.887
23.5,29.831,3.97,4.76,28.557,5.21,26.631,98.537,72.468
23.236,29.598,3.98,4.75,27.745,1.676,26.397,18.658,72.446
23.072,29.431,4.01,4.85,27.659,0.984,26.231,5.125,67.931
23.146,29.761,4.02,4.94,27.754,2.184,26.44,21.456,64.381
22.312,29.074,3.74,4.71,27.637,10.809,25.694,397.832,63.874
21.531,28.311,3.36,4.54,26.656,10.672,24.911,261.837,52.69
21.11,28.147,3.21,4.44,25.097,7.615,24.597,222.586,49.557
19.949,28.058,3.5,4.94,22.786,1.047,23.989,2.81,39.079
20.738,29.43,4.03,5.52,22.937,1.155,25.052,2.53,33.694
22.183,30.793,4.48,5.89,25.879,5.197,26.471,81.726,37.554
23.573,31.454,4.56,5.7,28.591,8.642,27.512,284.299,49.53
24.024,31.092,4.32,5.34,29.518,2.294,27.542,10.206,57.405
23.693,30.023,3.99,4.81,28.604,1.954,26.823,8.364,70.817
22.443,28.803,3.9,4.62,27.536,2.405,25.602,11.525,77.968
22.894,29.253,3.99,4.83,27.72,2.093,26.054,20.421,67.249
23.15,29.766,4.01,4.91,27.754,4.889,26.445,47.442,65.222
22.913,29.635,3.78,4.78,27.637,7.727,26.256,113.862,60.761
21.789,28.537,3.37,4.44,26.656,8.495,25.137,229.054,58.7
21.152,28.189,3.21,4.45,25.097,4.303,24.639,72.384,48.352
20.623,28.734,3.55,5.0,23.517,1.912,24.664,6.026,37.699
20.871,29.564,4.04,5.5,24.01,3.217,25.186,45.642,34.716
23.118,31.729,4.58,5.95,25.879,0.49,27.434,1.419,35.181
23.981,31.82,4.58,5.74,28.552,3.439,27.878,65.746,48.402
24.625,31.626,4.35,5.34,29.518,5.682,28.077,61.111,57.281
24.081,30.413,4.03,4.86,28.501,1.91,27.211,6.25,68.237
23.157,29.519,3.98,4.77,27.745,1.71,26.317,3.604,72.628
23.002,29.362,3.99,4.83,27.72,5.74,26.161,53.486,68.681
23.315,29.931,4.03,4.98,27.791,2.052,26.609,22.991,62.291
22.554,29.318,3.78,4.75,27.637,10.634,25.939,232.909,62.232
22.106,28.856,3.41,4.5,26.656,9.76,25.454,172.93,55.148
21.236,28.272,3.22,4.39,25.097,7.328,24.723,140.682,51.799
20.788,28.897,3.57,4.94,23.517,1.395,24.83,17.614,39.523
21.603,30.297,4.1,5.54,24.01,2.514,25.918,56.442,34.548
22.887,31.496,4.56,5.95,25.667,2.017,27.174,16.803,35.5
23.811,31.689,4.59,5.7,28.552,7.978,27.747,184.912,50.658
24.456,31.523,4.37,5.29,29.518,5.57,27.977,82.461,60.65
24.183,30.513,4.04,4.79,28.542,3.32,27.312,28.443,72.75
23.349,29.712,4.0,4.77,27.771,1.451,26.509,35.316,72.446
23.311,29.674,4.02,4.82,27.659,3.395,26.471,61.839,70.22
23.269,29.885,4.02,4.94,27.754,3.082,26.563,35.803,64.415
22.761,29.521,3.78,4.73,27.637,8.128,26.141,99.202,63.776
21.949,28.729,3.4,4.42,26.656,8.961,25.328,347.229,61.581
20.445,27.478,3.17,4.51,23.661,2.811,23.93,28.589,44.146
20.553,28.663,3.53,4.9,23.517,2.607,24.594,64.429,41.29
21.221,29.917,4.07,5.56,23.701,1.703,25.537,13.937,33.17
22.45,31.061,4.5,5.93,25.644,2.987,26.739,116.07,35.425
23.812,31.69,4.59,5.75,28.552,3.832,27.748,73.62,47.243
23.942,30.95,4.29,5.34,28.851,5.395,27.399,48.307,56.815
23.505,29.838,3.99,4.74,27.703,0.733,26.637,1.569,74.115
22.841,29.201,3.95,4.75,27.259,3.196,26.001,5.979,71.952
22.655,29.015,3.97,4.83,27.618,4.408,25.815,168.31,67.918
22.948,29.562,3.99,4.91,27.693,4.008,26.242,90.885,64.055
22.383,29.107,3.73,4.77,27.637,8.544,25.727,138.417,60.755
21.413,28.191,3.35,4.55,26.586,5.516,24.791,66.288,52.585
20.319,27.353,3.16,4.41,23.618,7.388,23.804,200.918,48.979
20.175,28.284,3.5,4.99,22.989,1.167,24.216,4.008,36.088
20.535,29.267,4.02,5.57,23.893,1.038,24.889,2.432,31.734
22.131,30.741,4.47,5.93,24.565,0.49,26.42,0.548,33.145
24.389,32.227,4.62,5.72,28.552,3.48,28.324,21.337,50.207
23.455,30.496,4.27,5.23,27.9,9.92,26.974,230.346,61.635
24.357,30.687,4.06,4.85,28.538,3.506,27.512,209.248,67.655
23.314,29.677,4.0,4.76,27.771,3.229,26.474,17.763,72.446
23.696,30.058,4.05,4.9,27.72,1.004,26.853,21.381,65.879
23.571,30.186,4.05,4.98,27.754,6.036,26.863,143.187,63.548
22.187,28.949,3.73,4.69,27.637,12.034,25.568,319.308,64.935
21.925,28.676,3.38,4.42,26.656,8.256,25.275,150.918,57.912
21.915,28.989,3.29,4.44,25.097,9.017,25.439,69.524,49.806
21.198,29.309,3.59,5.05,23.517,0.223,25.241,0.223,34.758
22.417,31.11,4.19,5.62,25.306,0.971,26.767,10.913,32.841
23.118,31.729,4.58,5.97,25.879,1.276,27.434,5.31,35.156
25.013,32.855,4.69,5.72,28.748,3.869,28.913,48.056,50.207
25.048,32.051,4.39,5.4,29.518,3.166,28.502,45.531,56.442
23.967,30.299,4.02,4.77,28.598,4.92,27.098,72.128,73.63
23.71,30.071,4.03,4.74,28.524,3.593,26.867,93.7,74.893
23.145,29.505,4.01,4.8,27.72,3.037,26.304,30.751,71.524
23.193,29.806,4.01,4.92,27.754,4.79,26.486,87.26,64.381
22.717,29.477,3.78,4.72,27.517,10.543,26.098,224.39,64.18
22.005,28.757,3.39,4.51,26.602,6.339,25.355,134.959,55.177
21.082,28.119,3.21,4.45,24.693,7.467,24.569,233.609,48.36
20.121,28.23,3.5,4.99,23.517,0.677,24.162,0.844,36.167
21.335,30.03,4.08,5.63,23.616,3.005,25.65,121.173,29.056
22.719,31.329,4.54,5.95,25.345,2.265,27.008,44.575,35.094
24.006,31.844,4.58,5.72,28.555,3.885,27.943,63.596,48.999
24.421,31.425,4.33,5.33,29.518,7.175,27.877,88.109,57.501
24.121,30.452,4.03,4.87,28.475,0.938,27.25,2.443,67.994
23.326,29.687,3.99,4.78,27.749,1.539,26.483,5.099,72.446
23.059,29.419,4.0,4.83,27.72,3.064,26.218,14.092,69.069
22.809,29.422,3.97,4.89,27.754,5.139,26.104,139.241,65.511
22.821,29.581,3.78,4.79,27.637,5.002,26.202,62.641,58.397
22.678,29.429,3.45,4.59,26.656,5.258,26.032,54.874,51.447
21.393,28.469,3.25,4.6,25.027,3.473,24.92,37.296,42.527
20.639,28.749,3.55,5.01,23.517,1.184,24.679,6.118,36.142
21.853,30.586,4.15,5.55,24.036,1.661,26.206,20.903,34.749
22.802,31.411,4.54,5.93,25.879,3.488,27.09,61.76,36.762
24.378,32.256,4.65,5.74,28.299,5.139,28.315,63.248,49.998
24.257,31.257,4.32,5.33,29.518,3.412,27.749,77.902,58.86
23.447,29.78,3.98,4.74,27.687,0.804,26.579,1.437,73.732
23.283,29.644,3.98,4.73,27.745,6.107,26.442,293.059,74.211
23.056,29.416,4.0,4.8,27.681,6.709,26.215,72.825,71.352
22.794,29.407,3.97,4.89,27.751,4.466,26.088,82.916,65.63
22.668,29.39,3.77,4.66,27.637,8.933,26.011,85.754,65.209
22.278,29.028,3.42,4.44,26.618,9.591,25.629,250.435,59.715
20.796,27.832,3.19,4.5,24.603,4.355,24.283,82.998,46.177
20.435,28.545,3.53,4.99,22.888,0.988,24.477,3.295,37.355
20.673,29.367,4.02,5.58,23.248,0.349,24.988,0.349,31.656
21.847,30.459,4.45,5.96,24.615,2.699,26.138,41.592,32.712
23.519,31.357,4.54,5.67,28.546,5.916,27.415,82.957,49.738
24.584,31.584,4.35,5.34,29.544,1.587,28.035,4.557,56.701
23.943,30.275,4.02,4.97,28.608,2.028,27.073,34.39,62.241
23.337,29.7,4.0,4.79,27.745,1.129,26.497,9.389,70.726
23.063,29.424,4.0,4.84,27.036,2.873,26.225,58.097,67.842
23.356,29.972,4.03,4.94,27.754,3.746,26.649,72.079,63.866
22.818,29.578,3.78,4.78,27.637,8.372,26.199,143.118,61.519
22.162,28.909,3.41,4.38,26.656,11.502,25.509,282.546,61.97
21.472,28.508,3.24,4.46,25.097,5.017,24.959,74.794,47.712
21.026,29.138,3.58,5.04,23.517,0.829,25.068,2.098,35.068
21.901,30.634,4.15,5.55,24.01,2.628,26.254,36.156,35.333
22.958,31.567,4.57,5.93,26.169,3.595,27.245,52.73,36.74
24.263,32.141,4.63,5.73,28.591,5.018,28.2,68.854,50.633
23.972,31.004,4.3,5.25,29.518,8.135,27.454,261.679,61.871
24.04,30.372,4.03,4.78,28.542,3.879,27.17,32.192,72.694
23.087,29.448,3.98,4.74,27.745,6.04,26.247,38.866,73.49
23.337,29.697,4.02,4.85,27.72,2.655,26.495,65.895,68.109
23.38,29.997,4.04,4.96,27.754,3.315,26.674,87.421,63.712
22.343,29.068,3.73,4.59,27.637,12.629,25.686,415.047,68.284
22.598,29.344,3.44,4.41,26.687,10.629,25.947,360.542,60.652
21.399,28.475,3.25,4.49,25.097,4.558,24.926,17.087,47.235
21.255,29.367,3.59,4.96,23.517,0.398,25.298,0.397,38.883
21.772,30.465,4.11,5.54,24.01,1.542,26.085,52.816,35.898
22.836,31.445,4.55,5.9,25.879,1.339,27.124,3.208,37.689
24.564,32.441,4.65,5.73,28.555,4.333,28.501,35.394,50.613
24.285,31.288,4.32,5.3,29.49,3.645,27.779,64.14,59.518
23.851,30.181,4.01,4.75,27.587,0.779,26.98,1.153,73.763
23.28,29.642,3.99,4.72,27.422,3.321,26.439,48.318,76.09
22.728,29.087,3.98,4.77,27.65,1.108,25.888,4.665,71.374
23.259,29.876,4.02,4.91,27.754,3.873,26.554,62.491,64.381
22.608,29.371,3.78,4.72,27.637,10.126,25.992,156.209,63.0
22.449,29.198,3.43,4.47,26.691,8.935,25.799,198.818,56.903
21.538,28.574,3.24,4.36,25.845,7.677,25.025,181.104,53.395
21.559,29.669,3.62,4.93,23.517,0.966,25.602,2.1,40.676
22.394,31.086,4.18,5.51,24.08,4.168,26.705,139.837,39.074
23.07,31.683,4.58,5.9,25.879,1.902,27.361,31.519,38.841
24.567,32.448,4.66,5.73,28.552,2.463,28.508,20.665,50.483
24.694,31.694,4.35,5.31,29.518,2.499,28.146,25.659,60.546
24.084,30.415,4.03,4.77,28.598,4.558,27.213,57.172,73.405
23.218,29.579,3.98,4.71,27.745,3.0,26.378,33.819,76.165
23.139,29.501,4.01,4.84,28.408,1.642,26.3,9.855,68.651
22.927,29.54,4.0,4.87,27.391,7.44,26.221,122.336,67.707
22.727,29.448,3.77,4.74,27.637,9.117,26.069,181.148,61.704
21.938,28.687,3.38,4.32,26.694,11.7,25.286,499.916,63.912
21.986,29.021,3.28,4.45,25.205,5.201,25.471,160.049,49.736
20.831,28.94,3.57,5.02,23.517,0.981,24.873,1.916,36.13
21.675,30.369,4.12,5.56,24.137,0.349,25.989,0.349,33.187
22.986,31.595,4.57,5.96,25.879,1.807,27.273,7.013,36.03
24.146,31.986,4.59,5.68,28.552,5.488,28.043,95.187,51.596
25.076,32.081,4.41,5.37,29.518,3.526,28.532,44.959,57.159
23.858,30.188,4.01,4.75,27.684,5.316,26.988,80.56,75.582
23.168,29.53,3.98,4.77,27.428,2.85,26.328,31.945,71.413
23.327,29.689,4.03,4.82,27.717,2.136,26.486,37.031,68.647
23.414,30.031,4.04,4.94,27.754,4.563,26.709,59.114,63.961
22.827,29.586,3.79,4.76,27.637,8.595,26.207,163.063,62.254
22.51,29.259,3.43,4.46,26.656,7.439,25.859,206.993,57.131
22.258,29.293,3.3,4.45,25.097,3.303,25.743,84.172,49.537
21.335,29.445,3.6,5.01,23.517,2.167,25.377,20.995,38.243
21.516,30.25,4.11,5.56,24.032,1.775,25.87,22.19,33.989
23.312,31.927,4.6,5.94,25.879,1.468,27.604,7.072,36.305
24.489,32.326,4.63,5.74,28.555,3.051,28.384,46.221,49.53
24.675,31.678,4.35,5.35,29.518,5.382,28.13,92.121,58.655
23.206,29.538,3.96,4.77,27.656,2.422,26.34,12.441,71.95
23.146,29.508,3.98,4.72,27.348,7.271,26.307,144.334,73.598
23.007,29.367,3.99,4.82,27.72,2.277,26.166,16.508,69.069
22.867,29.48,3.99,4.92,27.336,6.652,26.16,114.568,64.381
22.499,29.224,3.75,4.71,27.637,8.723,25.844,270.664,62.92
21.479,28.256,3.35,4.44,26.656,7.611,24.857,186.657,57.36
21.367,28.443,3.25,4.44,25.097,4.066,24.894,107.675,48.615
21.271,29.382,3.59,4.99,23.517,0.39,25.314,0.39,38.243
21.705,30.438,4.13,5.58,24.064,0.349,26.058,0.349,33.995
22.835,31.444,4.56,5.93,25.879,3.043,27.123,9.179,36.314
25.023,32.862,4.69,5.74,28.555,4.301,28.92,59.621,49.53
24.713,31.712,4.35,5.33,29.54,2.833,28.165,35.481,58.655
24.479,30.81,4.06,4.82,28.497,2.695,27.648,49.924,70.948
23.888,30.25,4.03,4.75,27.842,2.121,27.046,19.671,73.598
24.098,30.46,4.1,4.86,27.933,2.269,27.259,12.204,69.069
24.136,30.753,4.11,4.96,28.009,5.354,27.429,70.582,64.381
23.286,30.011,3.81,4.75,27.763,6.698,26.628,88.396,62.919
22.85,29.623,3.47,4.49,27.066,10.632,26.225,304.116,57.422
21.506,28.582,3.25,4.47,25.097,5.144,25.033,58.528,48.352
21.392,29.503,3.61,4.96,23.517,0.416,25.435,0.493,38.243
22.336,31.066,4.2,5.6,25.246,0.349,26.687,0.349,33.989
23.578,32.19,4.63,5.95,26.084,0.331,27.869,0.33,36.305
25.266,33.104,4.72,5.74,28.633,2.687,29.162,17.215,49.53
25.746,32.747,4.47,5.36,29.938,4.403,29.196,154.37,58.655
25.125,31.455,4.13,4.85,31.119,2.915,28.283,60.837,70.948
24.384,30.746,4.09,4.79,28.162,2.739,27.544,39.608,73.598
23.931,30.294,4.08,4.9,27.72,4.728,27.093,81.493,69.069
23.145,29.76,4.02,4.93,27.754,4.237,26.439,61.062,64.381
23.672,30.396,3.84,4.74,27.637,6.848,27.013,126.494,63.117
22.727,29.473,3.45,4.49,26.624,8.54,26.074,166.268,57.36
21.965,29.0,3.28,4.47,24.732,9.943,25.45,250.678,48.352
21.355,29.467,3.61,5.01,23.517,4.014,25.398,96.986,38.243
21.215,29.911,4.07,5.56,24.042,3.813,25.532,167.923,33.989
22.442,31.056,4.5,5.93,25.887,5.968,26.734,128.844,36.305
23.764,31.642,4.58,5.69,28.552,8.08,27.701,153.991,49.53
25.303,32.304,4.42,5.33,29.643,2.03,28.756,29.695,58.655
24.016,30.348,4.02,4.83,28.636,1.347,27.146,2.919,71.829
23.025,29.385,3.97,4.73,27.745,6.807,26.186,145.333,73.598
23.528,29.889,4.04,4.84,29.85,4.349,26.685,51.267,69.069
23.031,29.644,4.0,4.92,27.754,6.017,26.325,97.042,64.381
23.006,29.729,3.79,4.72,27.637,4.91,26.349,76.296,62.885
22.455,29.235,3.44,4.48,26.656,8.18,25.834,106.038,57.36
21.547,28.583,3.24,4.45,25.097,3.205,25.034,54.438,48.352
21.641,29.752,3.64,4.99,23.517,5.225,25.684,151.654,38.243
21.919,30.612,4.14,5.58,24.064,3.173,26.232,70.968,33.989
23.367,31.98,4.6,5.94,26.185,1.949,27.655,12.653,36.308
24.86,32.743,4.69,5.75,28.552,3.2,28.799,31.474,49.53
25.091,32.134,4.43,5.38,29.544,3.789,28.586,53.21,58.655
23.555,29.885,3.99,4.8,28.142,2.028,26.685,14.853,70.948
23.518,29.88,4.01,4.74,27.771,6.803,26.676,132.39,73.598
23.549,29.911,4.04,4.85,27.659,6.429,26.707,155.395,69.069
23.348,29.965,4.03,4.94,27.754,6.401,26.642,116.455,64.381
23.208,29.972,3.82,4.76,27.637,7.779,26.589,161.058,62.885
22.1,28.852,3.41,4.45,26.656,10.209,25.451,267.398,57.36
22.056,29.091,3.28,4.45,25.097,4.361,25.541,53.998,48.352
21.316,29.428,3.6,5.0,23.517,2.382,25.359,20.156,38.243
21.722,30.416,4.12,5.56,24.01,3.3,26.036,72.089,33.989
23.055,31.665,4.57,5.93,25.879,1.752,27.342,14.751,36.305
24.908,32.752,4.69,5.74,28.552,3.84,28.849,58.569,49.53
25.082,32.123,4.41,5.36,29.549,3.85,28.578,44.708,58.655
24.61,30.941,4.08,4.83,28.842,1.382,27.742,8.332,70.948
23.994,30.355,4.05,4.79,28.956,6.344,27.152,171.509,73.598
22.99,29.35,3.99,4.84,27.72,2.998,26.149,31.038,69.069
23.395,30.013,4.03,4.92,27.754,4.065,26.69,39.814,64.381
23.315,30.04,3.81,4.72,27.637,8.418,26.656,144.836,62.885
22.804,29.578,3.47,4.47,26.684,8.196,26.179,148.784,57.778
22.316,29.39,3.32,4.48,25.818,6.387,25.841,148.684,48.352
21.955,30.064,3.66,5.05,24.541,1.199,25.997,3.614,38.243
21.679,30.373,4.12,5.57,24.007,0.349,25.993,0.349,33.989
23.341,31.953,4.6,5.93,25.879,1.164,27.629,5.881,36.305
24.905,32.749,4.69,5.74,29.199,4.059,28.846,41.713,49.53
25.357,32.389,4.45,5.35,30.111,5.527,28.878,131.061,58.655
24.871,31.199,4.11,4.83,28.564,3.704,28.069,45.073,70.948
24.662,31.023,4.1,4.79,29.981,1.299,27.822,4.232,73.598
24.097,30.459,4.09,4.87,27.72,2.302,27.254,36.157,69.069
24.508,31.122,4.14,4.98,29.478,4.753,27.803,65.323,64.381
23.516,30.239,3.83,4.76,27.637,12.192,26.857,362.636,62.885
23.405,30.153,3.5,4.49,27.548,7.399,26.752,169.434,57.36
22.629,29.663,3.32,4.5,25.097,9.202,26.116,240.03,48.352
21.839,29.951,3.65,5.01,24.424,0.223,25.881,0.223,38.243
22.507,31.199,4.19,5.59,24.399,1.5,26.857,4.911,33.989
23.94,32.553,4.67,5.99,27.606,3.843,28.233,48.848,36.305
24.113,31.991,4.61,5.72,28.552,7.048,28.05,127.649,49.53
25.679,32.68,4.46,5.35,30.008,1.952,29.15,12.987,58.655
24.296,30.626,4.04,4.83,27.918,9.162,27.424,277.565,70.948
23.978,30.341,4.05,4.76,27.745,5.917,27.137,72.987,73.598
23.832,30.193,4.06,4.87,27.808,6.485,26.99,190.527,69.069
23.495,30.11,4.05,4.93,27.754,10.009,26.787,267.685,64.381
24.047,30.771,3.87,4.77,29.274,3.291,27.387,38.689,63.092
22.469,29.218,3.43,4.49,26.656,8.1,25.819,123.44,57.36
21.865,28.938,3.29,4.47,25.097,4.324,25.388,62.837,48.352
21.262,29.373,3.6,5.02,23.517,2.363,25.304,26.829,38.243
20.843,29.538,4.03,5.54,23.868,0.349,25.158,0.349,33.989
22.569,31.181,4.52,5.9,25.685,2.634,26.858,16.246,36.305
24.511,32.352,4.64,5.71,28.555,5.729,28.411,119.586,49.53
24.999,32.0,4.39,5.35,29.524,3.618,28.45,42.332,58.655
23.939,30.27,4.02,4.81,28.501,4.335,27.069,65.507,70.948
23.401,29.762,4.0,4.74,27.739,6.629,26.559,90.772,73.598
23.631,29.993,4.04,4.85,28.499,3.308,26.789,11.666,69.069
23.506,30.121,4.04,4.94,27.754,5.01,26.798,66.636,64.381
23.254,29.981,3.8,4.74,27.637,9.742,26.597,256.03,62.885
22.65,29.4,3.45,4.47,26.656,7.829,26.001,134.363,57.36
22.476,29.512,3.32,4.5,25.097,4.153,25.964,62.161,48.352
20.911,29.02,3.57,4.96,23.517,4.097,24.953,56.9,38.243
22.666,31.358,4.2,5.56,25.519,1.177,26.977,10.807,33.989
23.817,32.43,4.65,5.96,27.369,2.045,28.11,6.393,36.305
25.274,33.113,4.72,5.77,28.96,1.348,29.17,3.673,49.53
24.942,31.986,4.4,5.36,29.518,6.176,28.438,98.712,58.655
24.476,30.807,4.06,4.82,28.598,5.799,27.605,129.429,70.948
23.872,30.234,4.03,4.78,27.745,2.397,27.03,18.976,73.598
23.437,29.798,4.03,4.84,27.72,1.941,26.597,7.374,69.069
24.168,30.784,4.11,4.96,29.089,4.479,27.46,45.112,64.381
23.481,30.204,3.83,4.76,27.865,11.697,26.82,362.967,62.885
23.203,29.979,3.49,4.48,28.102,7.214,26.576,167.08,57.36
22.786,29.821,3.33,4.5,26.064,6.149,26.271,122.207,48.352
21.772,29.883,3.64,5.03,24.255,1.242,25.813,5.659,38.243
22.21,30.901,4.17,5.59,24.01,1.38,26.521,19.15,33.989
23.593,32.203,4.62,5.95,26.191,3.05,27.882,30.479,36.305
25.072,32.911,4.7,5.74,28.552,2.751,28.969,21.402,49.53
25.712,32.713,4.47,5.37,30.056,2.608,29.164,18.565,58.655
24.48,30.81,4.07,4.83,28.542,4.469,27.611,62.693,70.948
24.238,30.599,4.07,4.78,28.558,3.634,27.393,35.607,73.598
24.048,30.411,4.08,4.86,27.659,3.085,27.209,25.595,69.069
24.456,31.071,4.14,4.99,29.475,4.188,27.752,49.891,64.381
23.147,29.873,3.8,4.76,27.637,9.992,26.49,226.514,62.885
22.82,29.568,3.46,4.5,26.656,8.787,26.17,179.998,57.36
21.588,28.624,3.24,4.48,25.097,3.337,25.075,48.2,48.352
20.882,28.991,3.57,4.96,23.517,0.969,24.925,4.536,38.243
21.928,30.62,4.14,5.58,24.01,0.349,26.241,0.349,33.989
22.632,31.242,4.54,5.93,25.879,0.331,26.92,0.33,36.305
24.854,32.694,4.69,5.72,28.552,2.197,28.792,15.462,49.53
24.961,32.03,4.42,5.37,29.544,6.458,28.481,128.47,58.655
24.381,30.711,4.05,4.82,28.501,4.423,27.509,62.747,70.948
23.768,30.13,4.03,4.76,27.745,3.129,26.927,18.873,73.598
23.53,29.891,4.03,4.85,27.72,5.241,26.69,97.622,69.069
23.73,30.345,4.07,4.94,27.754,5.219,27.024,68.902,64.381
23.458,30.181,3.83,4.76,27.637,8.259,26.798,168.978,62.885
22.615,29.363,3.44,4.51,26.656,10.52,25.965,296.106,57.36
21.071,28.146,3.22,4.48,23.722,4.61,24.597,67.675,48.352
20.635,28.746,3.55,4.95,23.517,1.604,24.675,7.731,38.243
21.624,30.318,4.11,5.54,24.01,1.351,25.938,12.509,33.989
23.386,31.999,4.6,5.94,25.879,1.543,27.676,7.111,36.305
24.768,32.647,4.69,5.74,28.555,1.931,28.705,11.597,49.53
25.486,32.531,4.47,5.36,30.348,3.041,28.981,15.044,58.655
24.872,31.2,4.11,4.85,28.598,5.216,28.069,126.025,70.948
23.877,30.239,4.04,4.77,27.745,3.39,27.036,31.514,73.598
23.91,30.272,4.07,4.86,27.72,3.082,27.068,40.449,69.069
24.082,30.698,4.09,4.98,29.175,1.596,27.374,7.654,64.381
22.693,29.456,3.78,4.74,27.637,9.505,26.076,243.515,62.885
23.105,29.857,3.5,4.5,27.744,11.332,26.456,364.887,57.36
21.146,28.183,3.21,4.45,25.097,9.429,24.633,293.212,48.352
21.239,29.35,3.59,4.96,23.517,1.755,25.282,17.111,38.243
21.94,30.672,4.16,5.59,24.01,3.863,26.293,94.306,33.989
23.032,31.641,4.57,5.96,25.879,2.433,27.347,20.214,36.305
23.948,31.787,4.58,5.69,28.555,4.79,27.845,79.632,49.53
25.376,32.416,4.46,5.34,29.518,4.276,28.868,52.976,58.655
24.622,30.953,4.08,4.84,28.501,2.846,27.754,22.754,70.948
23.993,30.356,4.05,4.77,27.842,2.378,27.154,20.473,73.598
23.721,30.083,4.06,4.83,27.72,2.275,26.879,18.821,69.069
24.616,31.231,4.15,5.0,29.279,2.422,27.911,12.669,64.381
22.611,29.335,3.75,4.75,27.64,10.093,25.953,257.396,62.885
22.433,29.213,3.43,4.46,26.656,9.744,25.813,217.308,57.36
22.212,29.246,3.29,4.46,25.431,4.057,25.697,56.949,48.352
21.809,29.92,3.65,5.01,23.517,3.8,25.85,54.344,38.243
22.387,31.078,4.18,5.61,24.036,2.522,26.698,61.16,33.989
23.124,31.734,4.58,5.96,25.879,1.64,27.411,5.049,36.305
24.611,32.488,4.66,5.75,28.555,5.452,28.549,84.629,49.53
24.436,31.476,4.35,5.32,29.518,6.12,27.928,129.623,58.655
24.719,31.049,4.09,4.82,29.356,3.168,27.852,28.783,70.948
23.866,30.228,4.03,4.78,27.745,1.961,27.024,12.514,73.598
23.806,30.168,4.06,4.85,27.72,2.105,26.967,16.364,69.069
24.297,30.911,4.12,4.95,28.616,4.275,27.589,34.646,64.381
23.685,30.449,3.86,4.78,27.637,9.148,27.066,232.427,62.885
23.279,30.03,3.51,4.51,28.232,7.699,26.628,108.816,57.36
22.061,29.096,3.28,4.49,25.097,1.845,25.546,17.63,48.352
21.728,29.839,3.64,5.13,23.517,1.957,25.77,15.783,31.654
21.946,30.639,4.14,5.77,24.01,2.195,26.259,32.028,23.98
23.122,31.733,4.58,5.99,26.222,0.331,27.438,0.33,34.034
24.189,32.033,4.6,5.68,28.555,8.142,28.09,229.328,50.765
25.435,32.467,4.45,5.46,30.371,1.943,28.918,10.451,53.931
23.802,30.133,4.01,4.81,28.425,6.734,26.933,114.771,71.593
23.816,30.178,4.03,4.64,27.771,4.737,26.977,54.096,79.619
23.825,30.187,4.07,4.86,27.681,3.005,26.983,33.203,69.542
23.568,30.184,4.06,4.73,27.754,4.772,26.861,63.418,76.091
23.489,30.253,3.84,4.79,28.138,9.879,26.868,250.345,60.543
23.024,29.769,3.47,4.58,26.656,7.277,26.37,200.251,53.721
21.53,28.566,3.24,4.33,25.097,6.247,25.017,118.357,56.117
21.49,29.6,3.62,5.18,23.517,1.685,25.531,10.465,28.229
21.745,30.439,4.13,5.64,24.01,0.349,26.059,0.349,30.09
23.51,32.121,4.62,5.93,25.879,2.875,27.827,25.918,37.536
24.479,32.356,4.64,5.81,28.499,4.631,28.416,59.975,45.598
25.386,32.387,4.44,5.25,29.518,4.099,28.839,44.85,62.316
25.35,31.68,4.16,4.93,29.49,3.543,28.549,39.109,66.479
24.33,30.691,4.08,4.72,28.751,5.803,27.485,89.957,78.156
24.168,30.529,4.1,4.88,28.89,3.055,27.327,20.79,68.678
24.241,30.857,4.12,4.98,28.784,5.817,27.533,51.683,64.428
23.358,30.084,3.81,4.8,27.637,10.383,26.7,259.924,60.205
22.722,29.472,3.45,4.33,26.95,11.559,26.074,341.379,63.54
22.986,30.02,3.35,4.35,26.632,6.007,26.471,126.236,55.677
22.493,30.603,3.71,5.11,25.169,2.174,26.533,26.289,33.982
23.166,31.899,4.27,5.85,25.549,0.989,27.515,1.374,22.593
24.21,32.824,4.7,6.02,27.606,0.331,28.503,0.33,33.906
25.601,33.441,4.75,5.91,29.996,4.495,29.498,62.605,41.716
25.709,32.711,4.46,5.35,30.642,4.16,29.158,64.332,59.468
25.343,31.673,4.14,4.79,30.239,2.897,28.475,22.986,75.684
24.106,30.468,4.06,4.79,27.745,4.792,27.264,66.079,74.023
23.863,30.225,4.07,4.85,27.72,4.34,27.025,73.013,69.355
23.896,30.513,4.08,4.78,27.754,3.674,27.19,53.756,73.771
23.605,30.33,3.83,4.66,28.817,8.7,26.946,187.725,68.077
23.104,29.852,3.48,4.56,27.567,8.455,26.451,215.094,54.262
21.999,29.034,3.28,4.31,25.097,7.415,25.484,182.463,59.405
20.946,29.057,3.57,4.94,23.517,2.868,24.989,41.102,40.519
21.939,30.672,4.15,5.73,24.036,4.589,26.292,156.637,26.368
23.637,32.247,4.62,5.96,26.832,1.158,27.927,11.853,36.714
24.489,32.326,4.63,5.57,28.591,5.189,28.384,66.815,60.38
23.972,31.011,4.31,5.14,29.042,3.753,27.464,45.212,68.37
24.034,30.366,4.02,4.86,28.542,2.355,27.165,15.97,66.651
23.86,30.222,4.04,4.76,27.749,2.208,27.018,12.44,72.801
24.009,30.372,4.08,4.96,27.624,1.83,27.168,9.377,62.943
24.329,30.943,4.12,5.16,28.596,4.016,27.621,36.297,54.701
23.182,29.908,3.8,4.64,27.637,8.911,26.525,209.387,68.532
22.829,29.603,3.47,4.63,26.656,8.042,26.205,180.124,50.219
21.983,29.018,3.28,4.42,25.097,3.54,25.468,37.812,51.426
21.342,29.454,3.6,5.01,24.951,2.168,25.385,31.121,36.934
22.4,31.132,4.19,5.64,25.306,4.048,26.75,109.804,33.237
23.316,31.928,4.6,5.97,25.879,2.143,27.605,13.797,34.862
24.809,32.649,4.69,5.71,28.555,5.128,28.746,80.651,49.721
25.796,32.801,4.48,5.42,30.388,1.386,29.251,3.066,55.192
24.685,31.014,4.08,4.67,28.557,2.291,27.815,11.78,80.941
24.23,30.591,4.07,4.79,28.938,1.109,27.385,6.741,73.371
23.626,29.987,4.04,4.8,27.72,5.973,26.783,143.083,72.003
23.879,30.495,4.08,5.0,27.754,9.302,27.173,245.448,63.071
22.947,29.67,3.78,4.85,27.637,7.409,26.29,118.027,55.637
22.784,29.529,3.45,4.55,26.659,8.257,26.132,162.643,53.47
21.983,29.018,3.28,4.37,25.097,6.014,25.468,135.836,54.033
21.569,29.679,3.63,4.91,24.767,2.709,25.611,33.348,43.494
21.975,30.669,4.14,5.74,24.068,1.18,26.288,12.879,25.901
23.536,32.147,4.62,5.96,26.33,1.059,27.854,1.284,36.997
24.062,31.904,4.59,5.56,28.552,8.374,27.963,216.44,57.865
25.385,32.426,4.46,5.3,29.81,2.596,28.88,25.194,61.347
24.031,30.363,4.02,4.7,28.598,6.886,27.162,220.271,78.034
23.652,30.013,4.03,4.73,27.745,5.346,26.809,74.637,75.381
23.364,29.725,4.02,4.8,27.659,3.381,26.522,46.195,71.158
23.787,30.403,4.07,4.94,27.815,5.079,27.082,54.852,64.343
23.402,30.126,3.82,4.77,27.64,9.295,26.742,217.498,61.815
22.829,29.603,3.47,4.54,26.656,7.803,26.205,181.442,55.355
21.75,28.785,3.26,4.34,25.097,5.81,25.235,93.66,55.42
21.714,29.825,3.64,4.96,24.595,0.919,25.756,1.297,40.19
22.146,30.836,4.15,5.67,24.143,1.514,26.457,12.675,29.934
23.495,32.106,4.62,5.95,26.247,2.057,27.812,9.963,36.714
24.739,32.618,4.68,5.85,28.555,2.467,28.676,18.726,44.853
25.229,32.229,4.44,5.29,29.544,4.77,28.741,77.964,60.385
25.158,31.488,4.13,4.75,29.991,2.834,28.291,21.18,75.971
24.419,30.781,4.1,4.89,29.469,1.058,27.616,3.816,69.241
23.609,29.971,4.05,4.88,27.954,2.157,26.767,15.056,68.131
24.097,30.714,4.1,5.18,28.362,3.928,27.391,55.143,52.865
23.206,29.93,3.81,4.58,27.637,11.901,26.547,367.591,72.658
22.501,29.252,3.43,4.38,26.656,10.748,25.853,302.028,63.179
21.75,28.785,3.26,4.26,25.097,4.652,25.235,80.387,58.382
